Time [Sec],Roll Angle [Deg],Pitch Angle [Deg],Phase Angle,Angular Velocity X [deg/s],Angular Velocity Y [deg/s],Angular Velocity Z [deg/s],EKF Roll Angle [Deg],Step Frequency [Hz],Phase Variable
0.0,-96.05825805664062,22.48445701599121,3.141046791299123,5.964837499344339,-15.005910238592381,-3.004280477658088,-95.1071861946937,0.4,0.025132741228718346
0.00388,-95.78436279296875,22.465288162231445,3.141233971510591,7.744893226302736,-16.045253294404052,-1.9684615860147328,-93.62702328910781,0.40000703535631643,0.05030968690487478
0.039454,-95.7429428100586,22.50385856628418,3.141068685405948,7.672278923915392,-12.463474772892685,-2.8743149978008504,-89.28674218873391,0.4000274033211499,0.0755708458754462
0.045552,-95.65280151367188,22.45964241027832,3.140877691544707,6.567643955393454,-8.403824627422315,-3.9183514607893777,-83.97505095656973,0.40006846520823536,0.10096330835123331
0.051322,-95.59391784667969,22.398561477661133,3.1406579126664544,5.891604211063463,-5.323066521627594,-5.119697212203642,-94.67347107280146,0.4001389045709863,0.12654293494493987
0.057737,-95.5191650390625,22.348556518554688,3.140929205119719,8.013872906007009,-2.133879803089156,-3.630951187780404,-94.39479287178622,0.4001914099077674,0.1520143045658652
0.078724,-95.41020965576172,22.34697914123535,3.141331360606011,8.917805753975884,-2.029527319176055,-1.4283848679634843,-94.26872700693475,0.40019759080407624,0.17719790815065803
0.080852,-95.25830078125,22.383710861206055,-3.1413665060976084,12.537146047054089,-3.888257220419478,1.2342901016587626,-94.32397078359031,0.4001306185138907,0.20192226506606453
0.082916,-95.0284194946289,22.453109741210938,-3.140952779168407,15.067692714729732,-8.35334526058769,3.4839422515098692,-93.27184376651171,0.3999893552798849,0.22617563022170598
0.08513,-94.71517944335938,22.52454948425293,-3.140953868348544,21.21437973185743,-13.617465115243958,3.4665474672411394,-92.97646457099023,0.3998447999149703,0.25039943447802887
0.11926,-94.34764099121094,22.611125946044922,-3.1402568393589916,22.269758364292997,-14.648057844955195,7.221044183945792,-93.48176578691508,0.3995501665933504,0.2736711884404004
0.122665,-94.02647399902344,22.732919692993164,-3.1402093883283855,24.691792962851,-14.296798291414365,7.452097530736276,-70.70167541877541,0.3992433697782587,0.29684800456173144
0.126742,-93.70276641845703,22.816308975219727,-3.1401503267918875,26.591948174853965,-8.132587570197353,7.743530603563318,-90.65792897785202,0.398922895228151,0.31991960432696603
0.12957,-93.44807434082031,22.90548324584961,-3.1398701048817124,26.0219910867312,-0.12661473846081717,9.222845417403239,-84.32691532237291,0.3985299539707797,0.3425157463320168
0.159351,-93.262451171875,23.032468795776367,-3.1392672560834063,26.037084097249636,8.28982023243834,12.425888241890105,-92.6163016600858,0.3979693878488117,0.3640339810233663
0.163393,-93.06775665283203,23.233226776123047,-3.1381289239094636,29.799613329861636,15.421370155236747,18.470030213913816,-92.0316123080671,0.39707422811992654,0.3834146806716451
0.167798,-92.77155303955078,23.543758392333984,-3.1366074659653465,36.48131418731831,16.532807565285193,26.498577781352598,-91.607286986389,0.3957204666207812,0.3998576558706177
0.171759,-92.347900390625,23.98554801940918,-3.13458567796376,43.260782372554544,14.694332376582032,37.07553039982567,-91.44081629086153,0.3937529244835213,0.4123590742387489
0.1988,-91.86972045898438,24.592121124267578,-3.131928280091129,49.417176796040124,18.610399139094042,50.8724032402247,-90.98598867568559,0.3909864894992509,0.4197172764900526
0.200928,-91.41035461425781,25.382654190063477,-3.128933692765307,53.48006701249802,23.741508743627126,66.30393159430454,-90.39680400442656,0.38736756530711725,0.42154531083951563
0.203038,-90.95950317382812,26.355018615722656,-3.125733048399949,55.26454272562306,22.745095134296278,82.66077982619187,-86.50594317710151,0.3829223933976566,0.42154531083951563
0.205164,-90.4715805053711,27.484636306762695,-3.1228846743181373,55.86773039160523,17.176318960579824,96.9867396102676,-88.14458224393061,0.37785545434640466,0.42154531083951563
0.239293,-89.95301055908203,28.658967971801758,-3.121564436519716,54.80898276836155,11.7371703858001,103.23779021036582,-87.84725183470714,0.3727361227198545,0.42154531083951563
0.242662,-89.49732208251953,29.731557846069336,-3.1218735393098447,49.99708717733089,12.12895942810214,101.12915371923197,-87.99171003536863,0.3681124620528955,0.42154531083951563
0.24631,-89.24286651611328,30.63486671447754,-3.1235034363663714,43.314734036808474,23.6523884353368,92.50459189198682,-79.37186198825606,0.3643741027492799,0.42154531083951563
0.248421,-89.29663848876953,31.388866424560547,-3.125200995280905,34.54851750127186,46.10334318057377,83.87248953589798,-82.13797812688637,0.36145956476474655,0.4261270286849893
0.27886299999999997,-89.71537780761719,32.05563735961914,-3.1269428294473385,23.627424093920403,71.75378051419274,75.31006193953246,-87.6663581776773,0.3592826999852439,0.4351605581513956
0.28092400000000006,-90.45361328125,32.646888732910156,-3.12832002666972,11.434179779123749,93.53410630558284,68.7908922635654,-89.70087143604435,0.3576490884656683,0.4474706720706698
0.282753,-91.4089584350586,33.202972412109375,-3.129140823633033,0.045453684961871674,107.6713069817561,65.21793151627253,-90.55723865176631,0.35632159448796147,0.4616015363923094
0.284698,-92.42789459228516,33.76167297363281,-3.129393437793184,-7.733065899981213,110.22320225945627,64.60693694406903,-81.79984156985735,0.3550693679081559,0.47612191081599115
0.318871,-93.34774780273438,34.330875396728516,-3.1296790270049653,-12.313393318712702,101.50807895400592,63.72223620125562,-92.72456641567088,0.35390001740886007,0.4910843312945731
0.321349,-94.06839752197266,34.875938415527344,-3.1302584665556763,-14.275481271014755,82.53410713784481,61.090735068778955,-91.97714181051947,0.35293084053373924,0.5072310072886954
0.323461,-94.50601959228516,35.37683868408203,-3.131168805578294,-12.820093463611038,56.520184212070696,56.44505554629514,-93.31446353829014,0.35229660827938686,0.5254213072237304
0.325581,-94.62879180908203,35.825538635253906,-3.1322867307917552,-10.599644214443144,26.961555324052743,50.45659156883808,-90.44156888752497,0.35207509304541396,0.546164934689418
0.359922,-94.49456787109375,36.2280387878418,-3.1333498514177114,-9.252732617663922,-1.5572446042271202,44.62869509348427,-93.23774370342328,0.3522174146998161,0.5691806985337197
0.364265,-94.17609405517578,36.604400634765625,-3.134155753509712,-8.596800523363624,-27.02641309286389,40.12945482680552,-89.04455690277503,0.3525722333974578,0.5935405630112012
0.368241,-93.72496032714844,36.96186447143555,-3.134893592725147,-9.655499481509464,-48.98775597273225,35.97479418865934,-92.97833408714125,0.35307445885626293,0.6188489054008811
0.372331,-93.23515319824219,37.291465759277344,-3.1354625272381162,-13.718677419686145,-63.840815115436214,32.74742735299076,-91.54681159759463,0.3536058404167635,0.6443719967365849
0.399018,-92.80988311767578,37.594146728515625,-3.136015446211378,-19.65866412950904,-72.77642375748373,29.657746885705887,-22.592518068898908,0.35412881511039673,0.6698756538580426
0.401101,-92.44380950927734,37.85432052612305,-3.1366999828888544,-23.321959251217216,-76.90377046913903,25.914922748849374,0.9193932707984458,0.35469001962208146,0.6956523754796886
0.403146,-92.09368133544922,38.05470657348633,-3.1375292948053257,-23.114770585386758,-75.36144545265846,21.44075269151916,-91.9583826745268,0.35534693074821616,0.722065701014468
0.40542399999999995,-91.77494812011719,38.192562103271484,-3.1383738016425733,-20.7152517054277,-68.19937056068562,16.92580298974939,-89.72793293874737,0.35608623553277785,0.7490379961166391
0.439852,-91.54776763916016,38.27294921875,-3.139283579952232,-18.901271282635495,-56.5786745370281,12.111807115548945,-90.19587932193528,0.35692940555194946,0.7767093476244371
0.443404,-91.4947280883789,38.3000602722168,-3.1401128371994913,-19.959405896401165,-40.78712691179688,7.75759054796979,-90.39532642569101,0.35781875310147226,0.8047238190472183
0.445643,-91.68348693847656,38.2868537902832,-3.140856291958753,-22.66724634568377,-21.25517132912804,3.868164938315416,-88.6444239279121,0.35870815363198627,0.8327945027139467
0.448175,-92.07086181640625,38.23246765136719,-3.1415843084784894,-22.556653630190212,-1.6151273625135105,0.044022730315274254,-86.26122684952342,0.35961001802273557,0.8609993818076308
0.480137,-92.53546142578125,38.13408279418945,3.140936355614067,-19.116067071654058,16.323183937015624,-3.4796210896427784,-91.75713988076774,0.36051487227018325,0.8892797125358839
0.483853,-93.04885864257812,37.98756408691406,3.1401950242186767,-15.370835293115116,33.75757476519521,-7.451195945765834,-85.17066946994838,0.36151351217557637,0.9182061696012903
0.488127,-93.65716552734375,37.76539993286133,3.1391709740377163,-12.321153267383483,51.67003273149879,-12.995146089396586,-92.637133955779,0.3628393588317531,0.9492512737114378
0.492303,-94.36165618896484,37.43693161010742,3.1378709076816436,-10.24067508487666,67.11210689765714,-20.12180388920197,-92.8189951086779,0.3647236778466565,0.9838886685426991
0.519189,-95.11135864257812,36.99861526489258,3.136451801827872,-11.877840693077452,74.5588435836686,-28.015212748817465,-93.34504351042374,0.3673008574263371,1.022997829949978
0.521677,-95.69506072998047,36.4850959777832,3.135160702923153,-6.540657024209088,65.3565570356671,-35.26637721322937,-94.57386741027457,0.3705460761054157,1.0664663337799056
0.523952,-95.87306213378906,35.95416259765625,3.134119159214245,-1.8777985087456297,44.63509498073657,-41.053579421508246,-94.86941389823836,0.3743639900461594,1.1137370911666489
0.526149,-95.79305267333984,35.44071960449219,3.1335371020977862,-0.9740306525338928,21.39856773565787,-44.21415383728327,-94.38094956458464,0.3785306212955203,1.1634387906310197
0.559794,-95.6088638305664,34.96692657470703,3.133355005454038,-3.1681061934388404,0.3097712236140279,-45.1267285820995,-94.69383829142143,0.38288998147471115,1.2146132388380313
0.564044,-95.43366241455078,34.5223388671875,3.1332949692393095,-7.924217281640482,-12.726260324793403,-45.3723319393694,-92.52672485183297,0.3875068054523472,1.2676792864788304
0.568202,-95.39641571044922,34.06802749633789,3.133117721636113,-14.120479519311425,-14.218640436741909,-46.32349383790162,-94.54074520990919,0.39262976436802194,1.3242155573315852
0.570295,-95.51136016845703,33.580318450927734,3.132924205342602,-16.36527327022854,-9.127361934127398,-47.43838561612281,-93.05380605093106,0.398399343696268,1.3851365490618135
0.599564,-95.62059783935547,33.039485931396484,3.132126688934883,-14.580567038219007,-7.835514468663173,-51.86231963210758,-94.39238918684096,0.405398295405142,1.4541444286316936
0.60383,-95.61235809326172,32.41944885253906,3.131221914655944,-9.564120088151157,-7.633003628640526,-56.81485906343256,-94.5815872009608,0.41371347741562886,1.531862184198961
0.607693,-95.55735778808594,31.77215576171875,3.1308639262990514,-6.542219429981728,-4.188482881142443,-58.74239308872352,-93.21834018293026,0.4227256886142777,1.6144819616143111
0.610064,-95.54177856445312,31.164390563964844,3.1311382150627236,-4.538486960536461,-1.747510942780344,-57.231152263155664,-94.29166022968641,0.4315904381706315,1.6967414641353065
0.639242,-95.52703094482422,30.62364959716797,3.131748240721609,-3.014728532654092,-0.46270449521590246,-53.883123305609644,-92.21474115782719,0.4396916939102401,1.7747607821664486
0.641341,-95.5185546875,30.135934829711914,3.132394630834761,-2.673301890197141,0.9902845817678191,-50.34045103219118,-93.29531429052318,0.4467925232938864,1.8470032529272211
0.643383,-95.55976867675781,29.681974411010742,3.1329899100089973,-6.112290184467513,1.100015946374011,-47.10265791275459,-84.69980334443868,0.45288714676770575,1.9133697037678932
0.645475,-95.68058013916016,29.27062225341797,3.1338067397654026,-11.121541530244755,0.7118889526841554,-42.68396948205238,-94.88410578638008,0.4578564447655068,1.973048462598487
0.679879,-95.86256408691406,28.936973571777344,3.1350099716461135,-15.811983551227899,0.28293047448615544,-36.15603667338021,-92.59701532612827,0.46152725219007146,2.0248807947394787
0.683589,-96.05773162841797,28.698474884033203,3.136331576963172,-18.243182556104767,-2.009508248162159,-28.95566832582569,-94.55028497094082,0.4639796976177342,2.0692885763154654
0.685876,-96.28384399414062,28.543128967285156,3.1377054314507964,-24.044770850322987,-1.7656702813492922,-21.444582720096246,-94.98323085839736,0.46533019651950247,2.106926715361432
0.687685,-96.5985107421875,28.46331787109375,3.1391492366581955,-25.77522318220781,1.779276871949604,-13.523574773592024,-95.61367681834315,0.4656523199950267,2.1381882353875263
0.720102,-96.87220764160156,28.43253517150879,3.140121418561127,-21.487747808103435,5.738184928813459,-8.165902671647737,-94.62561120252583,0.4653927436669049,2.1658150673690484
0.724557,-97.09954071044922,28.39166831970215,3.140562269770943,-19.126657279962163,12.333315272974337,-5.732433055758662,-95.45412464754419,0.4649924248647797,2.1925412786441063
0.72893,-97.42201232910156,28.306814193725586,3.140638402279478,-19.108676806972102,24.33351368239069,-5.326508510082458,-2.907462052384064,0.46473341332059925,2.2201301968339235
0.732642,-97.85054779052734,28.170469284057617,3.1405548605200786,-17.725640339672683,37.656335535897696,-5.818309451080056,-97.46186180410324,0.4647270545872358,2.2492903052771958
0.759389,-98.26188659667969,27.9948787689209,3.140197653857727,-15.294367910262238,41.191713167282586,-7.853841573753609,-86.35446167908691,0.4651500743319137,2.2811478787339166
0.762335,-98.54074096679688,27.772668838500977,3.139289523439912,-12.396476593550384,34.91623781071242,-13.003423424896996,-96.6930583224687,0.46634262677555827,2.3178671478526227
0.765813,-98.67986297607422,27.466140747070312,3.13800364142424,-7.261892130277054,30.838625121498563,-20.292145392007505,-97.28232427299932,0.4684720448277075,2.360547847477407
0.769992,-98.71353912353516,27.09339714050293,3.137275278778552,1.5993240123213934,31.12421923635889,-24.418658820584067,-97.40333880679047,0.47105094701202765,2.4061865344794393
0.79941,-98.63719177246094,26.77535629272461,3.137613935562372,7.740824141104701,23.973839335792402,-22.485822860949888,-95.82682917446759,0.4733298072963629,2.450102039827079
0.801538,-98.46958923339844,26.665178298950195,3.139582038484279,8.229450751685535,6.232645801605954,-11.343688310357543,-97.55421581624908,0.47437180029291787,2.4863892638197638
0.803545,-98.25056457519531,26.868276596069336,-3.14050991979491,4.049482128230337,-17.012385882763056,6.095081949740489,-87.8339039452452,0.4737113521236157,2.5120452048436586
0.80565,-98.0329818725586,27.302276611328125,-3.1381708478826544,-4.227855079726158,-38.99774370775318,19.21993375836244,-96.07587247888358,0.47194726467884973,2.530725278605198
0.840215,-97.86627197265625,27.705780029296875,-3.138143756453424,-10.609904866123795,-49.0552553172049,19.339161540514183,-94.51733731990167,0.4703730930397005,2.550487787683054
0.844565,-97.75638580322266,27.870319366455078,-3.139615310702003,-9.879551030627038,-41.587389440996006,11.075167960874955,-94.15235411786612,0.4697124420844401,2.5758912083785837
0.846902,-97.71714782714844,27.81940269470215,-3.1412337823557,-9.410688426183283,-28.81881524052073,2.0092412304542937,-84.81830406157215,0.4699193239768577,2.6067039887923875
0.8488,-97.7421646118164,27.699539184570312,3.140968240239862,-13.569172262717384,-29.69663798283994,-3.496848534276843,-95.95664354438907,0.4705611605961215,2.6402626691278672
0.879426,-97.74005126953125,27.660404205322266,3.1412495672387895,-17.55319855369737,-38.707494818973494,-1.9213153514950734,-94.12447499118885,0.47099807452718867,2.6725741100239198
0.882819,-97.7652587890625,27.767498016357422,-3.140743156946118,-23.707076052473802,-38.59816739602368,4.758487780589395,-96.31073560517824,0.47087994308469727,2.7014255500959323
0.887027,-97.93108367919922,27.939523696899414,-3.1399613049782262,-23.363809527809178,-25.422027270037283,9.153566808651798,-97.00793213397891,0.47045143471371426,2.728319411993722
0.891452,-98.1136245727539,28.045635223388672,-3.1401378410609064,-18.83516017411165,-13.935687897543083,8.178229455552318,-96.07393165079506,0.4701073183085434,2.755716600276141
0.918519,-98.22029113769531,28.03276252746582,-3.1412278230357766,-14.635328079889584,-9.282612987735435,2.0531234883243332,-92.70988003727143,0.47013911611768144,2.7854541057552558
0.920955,-98.2752456665039,27.916854858398438,3.1409733604560004,-11.306463779380973,-5.141212734976005,-3.4870894746133643,-96.89053434232396,0.47043380840738136,2.816845423887248
0.923024,-98.34151458740234,27.780067443847656,3.140519738052644,-11.5094689543448,-4.225198563025846,-6.045402568812402,-97.33557701079621,0.4707726416304265,2.8485326037457273
0.925179,-98.37474060058594,27.678462982177734,3.1404763816845214,-7.66044220608376,-7.114688747058585,-6.291821706801298,-79.52547607888617,0.47102999093804593,2.8797290945833187
0.958972,-98.3271255493164,27.59549331665039,3.1402940605535425,-5.991358697004675,-8.085579647008387,-7.315925756801024,-95.89246529680766,0.4712528489954162,2.9107250402380025
0.963408,-98.32673645019531,27.467731475830078,3.139677948346906,-8.038174719073913,-8.544527378098223,-10.786901534501858,-79.83163276573318,0.4715348933218685,2.9421068667736856
0.967578,-98.34941101074219,27.281991958618164,3.139009809762649,-8.429994497227218,-11.784108299550073,-14.554373262752009,-96.73128659247607,0.4718597667560456,2.973775517897425
0.969685,-98.3275146484375,27.069894790649414,3.138540285887594,-6.98895179462782,-11.412953258730642,-17.196334829942547,-97.52390440354125,0.4721702822351262,3.0053743677285434
0.999222,-98.32413482666016,26.8277587890625,3.138050489748465,-6.094581638383786,-5.9441676393685885,-19.955068726278206,-94.71778555451574,0.4724566206737722,3.0368408189973906
1.004082,-98.36568450927734,26.52387237548828,3.137225144974503,-5.525605109293744,-1.463347539107722,-24.61516677809992,-67.82242305387707,0.47273621648419606,3.0682828962583666
1.008501,-98.38924407958984,26.135574340820312,3.1360890639107457,-3.533261126515827,0.4454463414109992,-31.02563570097351,-89.47866445727841,0.47299346857701335,3.099602151324049
1.012761,-98.39141845703125,25.67425537109375,3.1350578497247974,-4.199313853618791,1.1866729042514899,-36.83991277912232,-74.03630669567386,0.47317117007029275,3.1304377388572355
1.038646,-98.43473815917969,25.184856414794922,3.134409522443898,-6.777313260553098,0.36011187891156393,-40.51280260906707,-83.65808319163662,0.4732224773130895,3.1604903332069942
1.040776,-98.49693298339844,24.703874588012695,3.134077861596015,-8.69192712925533,-2.4504855381022805,-42.41021550011828,0.9386158621990963,0.4731338001863123,3.189666603551752
1.042802,-98.53055572509766,24.231678009033203,3.1337774682959747,-8.96733743206317,-6.218412541149294,-44.12062805697828,-98.40586675453504,0.47290402154111405,3.2179507351609455
1.044884,-98.52692413330078,23.745838165283203,3.1333891403604506,-8.756435704645162,-9.644962207167428,-46.31132244080066,-97.73515710960072,0.4725249890287185,3.2452826396466508
1.079596,-98.50302124023438,23.24462890625,3.1331109453472634,-8.539449132450319,-13.418696365112831,-47.870275552815635,-92.45482453894978,0.47200064649713364,3.271677719039672
1.0826,-98.4567642211914,22.756227493286133,3.1331194053497944,-7.735193503907672,-17.2465230599638,-47.80006803833707,-97.20305669835655,0.4713628941200667,3.297327277944967
1.084718,-98.39859008789062,22.302818298339844,3.1334068358980307,-7.463095842847289,-19.23571149534517,-46.15122963684473,-97.41826835117239,0.47065823303170806,3.322516365854899
1.086622,-98.35511016845703,21.887351989746094,3.133835498339901,-7.422475000305931,-20.023761646308316,-43.71502751840083,-97.42881489776599,0.46992291192071806,3.347468535999147
