Time [Sec],Roll Angle [Deg],Pitch Angle [Deg],Phase Angle,Angular Velocity X [deg/s],Angular Velocity Y [deg/s],Angular Velocity Z [deg/s],EKF Roll Angle [Deg],Step Frequency [Hz],Phase Variable
0.0,-114.50221252441406,-22.17634391784668,3.1325245612420103,-27.27713055427484,3.274378814282361,-59.49279182188697,-113.36852725189512,0.4,0.025132741228718346
0.003637,-115.1961441040039,-23.27890968322754,3.133244668024219,-28.945552815664904,11.941482688216338,-55.10009567607125,-113.98309244488254,0.40020378924899325,0.05154592807247238
0.040974,-115.09896087646484,-23.286848068237305,3.1339489758021424,-29.176249285071254,15.89030191534585,-50.408626565391664,-113.77325667800946,0.4005544699386481,0.07889486551409182
0.045772,-115.3931655883789,-23.754358291625977,3.1344419303458975,-29.529486178376803,15.564539457976677,-47.278108397059285,-113.922354308016,0.4010160805384144,0.1069628300546184
0.04889,-115.72120666503906,-24.18067741394043,3.134609732377532,-28.295767891617615,8.97282207396669,-46.29987162865714,-113.98731277793256,0.4015857470124476,0.13573873352607357
0.051803,-116.0539321899414,-24.5455322265625,3.1347400475003413,-23.068675346225632,-1.772183507053134,-45.56643567029741,-83.11924445517778,0.40225076056768033,0.1651495135774005
0.078911,-116.34202575683594,-24.8316650390625,3.134855094445131,-15.58156711957752,-14.402544987691796,-44.91262264218711,-115.3824324195273,0.4030008544122404,0.1951366528865528
0.081076,-116.60865020751953,-25.046573638916016,3.13493174528171,-9.310690187866065,-27.4325924899735,-44.50340893353872,-115.60411898229617,0.4038356925455378,0.22570338605179832
0.083098,-116.8993148803711,-25.2192440032959,3.1348322490364176,-5.507890586794493,-37.80294896152661,-45.280780083734555,-115.13665202354821,0.4047954838552709,0.2571076776062403
0.085255,-117.22879028320312,-25.404407501220703,3.134591858938084,-5.064953672892813,-42.551019849858086,-47.02311011458603,-116.14520271365903,0.4059305701726368,0.2896736856436149
0.122028,-117.60829162597656,-25.651531219482422,3.1343225063356783,-9.368056946705002,-39.270080425434514,-48.990450482359826,-105.8295153497079,0.4072741876277678,0.3236212530386015
0.12829,-118.04596710205078,-25.97825050354004,3.1340188680283627,-15.096118254508033,-33.70421391230449,-51.22654854868986,-114.90744097431032,0.40886903430298355,0.3592317621524842
0.130689,-118.53701782226562,-26.36086082458496,3.133715115345119,-21.335786344354407,-27.954721178433246,-53.50275348582622,-115.45471133734463,0.41075361821384054,0.3967629511802601
0.132514,-119.06852722167969,-26.79657554626465,3.133378596954685,-26.84682351392216,-20.911462549714656,-56.03857391331476,-45.844145746754315,0.41298588894365246,0.4365971328197818
0.161538,-119.60386657714844,-27.288402557373047,3.13314327835997,-30.568071083190603,-13.744061817736497,-57.90322921710658,-119.10733352118662,0.41557118625464523,0.47878970359373496
0.16965100000000002,-120.09542083740234,-27.81413459777832,3.133255071874349,-32.00174828054379,-4.3565746903901035,-57.371901971382115,-117.98786563652826,0.41838252411465604,0.5225649680448965
0.17404599999999998,-120.47754669189453,-28.364084243774414,3.1336832205465712,-30.694788167767264,7.505380690225191,-54.598807602316505,-115.15471133718854,0.4212651556013037,0.5669648251307932
0.177505,-120.6768798828125,-28.94047737121582,3.134340078560717,-24.54967209414867,21.710849107152733,-50.1471839994365,-119.64739631689517,0.42407064335483596,0.6110610949242679
0.199117,-120.63494110107422,-29.54644203186035,3.1350094948516944,-15.050154496488432,35.84960365136217,-45.50261438269281,-118.81130743601483,0.4267526010541893,0.6545574764906545
0.203145,-120.37667846679688,-30.168140411376953,3.1356482875892797,-4.155657418878185,47.129787424137874,-40.999224776093286,-118.90887451716154,0.4292886656216307,0.6973056968463048
0.20559,-119.97522735595703,-30.787715911865234,3.1361738640156784,3.7336486314802464,56.21509332222457,-37.24952605383715,-118.82353288077809,0.43171582969065186,0.7395290208266184
0.20769,-119.52093505859375,-31.379419326782227,3.1368715520013932,8.645759319334275,60.724391042456155,-32.33055700228279,-72.96742864440876,0.4338704075808965,0.780192138549669
0.242202,-119.06698608398438,-31.896499633789062,3.1374992470116156,11.416675711828299,60.76499651707188,-27.925522119731443,-118.40569969499492,0.4357578887596294,0.8193124142607842
0.245835,-118.655029296875,-32.3386116027832,3.1380632563428685,12.178343403348626,56.685642129619666,-23.994468214633134,-117.42921727456145,0.4373852007323013,0.8569165925790948
0.247951,-118.32391357421875,-32.7072639465332,3.1383741578710254,11.475752579280678,49.177321042956784,-21.819741105542953,-117.1340749170297,0.43891983487194974,0.8940407059254203
0.24982,-118.1113510131836,-33.0160026550293,3.138405997110058,9.663129656586015,37.56930868058798,-21.565075794791735,-89.56869719997698,0.4405657596136076,0.9319605026538994
0.279537,-118.04629516601562,-33.27659606933594,3.138170260280834,6.397347702591173,25.106334219052,-23.147634040578275,-117.0266478823241,0.44252927491921973,0.9719791962490503
0.283086,-118.12789154052734,-33.52364730834961,3.1377357522033025,1.4619291009161806,14.221717436962999,-26.10452367756705,-116.74263121442472,0.444964823096878,1.0150871311555338
0.286125,-118.34708404541016,-33.77668762207031,3.1372229121553703,-4.472776271852707,4.961871604165334,-29.630480770539197,-117.1427473948849,0.44792250872912576,1.0616287824502697
0.288667,-118.67892456054688,-34.024986267089844,3.1369113785285347,-10.24348570772012,-2.423291139921875,-31.831973683439365,-117.47292392472531,0.45118982502807975,1.1103017374697841
0.319145,-119.08715057373047,-34.24675369262695,3.136845639533538,-15.884784830043772,-7.918678851997248,-32.39002745938609,-117.94095219811723,0.454503699436885,1.1594725172586813
0.321265,-119.53761291503906,-34.430885314941406,3.137105131222432,-20.348728386639184,-11.041109222578687,-30.735250208410417,-118.40950805965568,0.45752041733145854,1.2069844244733774
0.323291,-119.9621353149414,-34.572357177734375,3.137647703090119,-22.011408166484557,-11.235893411102756,-27.11506382564878,-111.03585037597486,0.45994232755481657,1.2509485908432052
0.325455,-120.28904724121094,-34.689697265625,3.1382698616623563,-20.806702815772294,-7.8883451281195756,-22.90094809832492,-117.75762430389189,0.46169315309201653,1.290848380880399
0.359466,-120.4822006225586,-34.804420471191406,3.13898285562562,-17.588112773187184,-2.3521910050961576,-18.015793605803996,-118.55333444144823,0.4626958112979294,1.3261573045472457
0.362235,-120.54562377929688,-34.90700912475586,3.139723866488188,-13.191278386508088,3.0124882306063276,-12.907270583082495,-119.2124059790429,0.46294888438559567,1.3568194448857198
0.364424,-120.51860809326172,-34.98659133911133,3.1404041637671023,-9.46692308116729,7.105565748761563,-8.206772816093801,-119.3267143120858,0.4625507005205906,1.3834055181590315
0.366304,-120.45271301269531,-35.04957962036133,3.140941665622595,-7.61137156576545,10.838947575977356,-4.492749879419939,-96.96615689132406,0.46168644474053677,1.4070381565935182
0.399425,-120.38223266601562,-35.105220794677734,3.1413187919078855,-6.777322225176383,12.636953040074546,-1.888931930536162,-119.46937348067283,0.46055290964446394,1.4289245603938783
0.402219,-120.31140899658203,-35.15263366699219,3.1415475827612798,-5.5152304788313185,13.883314006987426,-0.31068836327308724,-116.82089891619948,0.4593247671627433,1.4501453063481766
0.405113,-120.22123718261719,-35.19655990600586,-3.141501079370093,-3.625572413809019,13.76451055033787,0.6307787487429615,-119.08676390695993,0.4581071751901147,1.4713551766382231
0.407733,-120.11819458007812,-35.2401008605957,-3.1415547720911094,-1.671091477973362,13.505432083609177,0.26071053509478165,-117.71685148001067,0.45710677333425265,1.4938531891188762
0.439786,-119.97400665283203,-35.311771392822266,3.141523189795595,1.6590853927946547,15.914315152920322,-0.4774944160899188,-118.53872930984566,0.45637055478721983,1.5179482571815468
0.442826,-119.7647705078125,-35.43064498901367,3.141396996454453,2.473906470209666,20.820532241294277,-1.3426023877431785,-117.33127864671438,0.455903420563125,1.543687773932918
0.447945,-119.5350570678711,-35.59727478027344,3.1412651482434346,2.2368143824192446,26.43397955972991,-2.243036471309715,-109.23434306488232,0.45569322710336624,1.5710123462106478
0.450229,-119.26835632324219,-35.79865264892578,3.141163834278414,3.182264108371219,31.888182725213987,-2.9303684393284413,-109.27109117510248,0.45568614835075477,1.5995999189874173
0.479269,-118.9551773071289,-36.01750946044922,3.1411185641271318,3.910748606469507,35.98587958568226,-3.2312184220302274,-23.95394318066932,0.45580065290585664,1.628950977445666
0.481405,-118.63814544677734,-36.23642349243164,3.1411073619512466,3.3683895380184166,38.48724170880809,-3.298753198109198,0.8921926297054471,0.4559815718398146,1.6587265242867104
0.483561,-118.33518981933594,-36.438087463378906,3.141152859240923,4.0689972593495325,38.031176317547995,-2.9818529111881165,-118.23753295018209,0.4561512698749395,1.6884429356129502
0.48565,-118.0196762084961,-36.60700988769531,3.1411569644757797,7.278592796571381,35.4631856990687,-2.946142761216586,-116.98495413111588,0.4563415045387835,1.7182990448250266
0.519623,-117.68864440917969,-36.7375373840332,3.141306110520384,9.939294695297141,31.361937140232012,-1.9321779135963324,-101.78789124360006,0.4563830354361404,1.7472327735128361
0.522539,-117.39964294433594,-36.7983512878418,-3.141535052569119,10.520860543687984,24.619089014230802,0.38745349968509524,-116.56430654160769,0.45606903792336606,1.7739352607810657
0.525381,-117.16763305664062,-36.75799560546875,-3.140731172381962,10.38103120345219,18.55386907842843,5.7833064391310325,-116.11413003113671,0.4549362090434615,1.7954731497886967
0.52798,-116.89435577392578,-36.61682891845703,-3.1396763017405775,13.180363744214407,15.889902349279405,12.8348842382587,-114.29001168442983,0.4527846147035276,1.810538768888672
0.559764,-116.5599365234375,-36.41739273071289,-3.1390060252590524,14.696265320117146,12.118933564174208,17.274557571412117,-115.2725226958991,0.45009374397233,1.8220808258311136
0.562697,-116.25936889648438,-36.21490478515625,-3.138898611667561,16.072676503921652,9.162697064024814,17.945517789433733,-83.31311310437687,0.447484214997918,1.8339648957102326
0.565882,-115.96542358398438,-36.07227325439453,-3.1393801032439934,18.06946181720737,8.125829098013625,14.700937169509434,-115.1087815585422,0.44554971686859096,1.849926347935976
0.568419,-115.71751403808594,-36.01173782348633,-3.140115365048408,15.02425954179762,7.235210850058045,9.794615066976991,-108.50994244058494,0.4444860936960829,1.8712381207925652
0.599381,-115.61997985839844,-36.051246643066406,-3.1415877190775237,8.882608935409161,6.681067357411155,0.0326888584808579,-114.628534855796,0.4449481279877969,1.9020690527972448
0.601474,-115.60784149169922,-36.14414596557617,-3.141532220002219,2.7083518596967076,9.560742559606584,0.40030249957649083,-114.55098430151556,0.4452464225871956,1.9319002084436976
0.603695,-115.4986343383789,-36.15102767944336,-3.1411977664601314,4.543581000996821,12.201463593689118,2.6131990002653787,-112.58737303381866,0.4451074480533789,1.9590026634994897
0.605755,-115.15536499023438,-36.09251403808594,-3.1400679260252256,13.861845868652429,17.228086671846643,10.060032803029102,-2.508525226185887,0.4437963699775907,1.978731842774384
0.639659,-114.57723236083984,-35.90080642700195,-3.138462752368813,23.176974825705354,17.842499753729726,20.54721709901434,-112.88627370343683,0.4409873344090769,1.9889667000751814
0.641922,-114.0008316040039,-35.51161575317383,-3.136204717811093,23.24273588703424,14.521627628323674,35.193079038151375,-112.24476677984792,0.4362198258192833,1.9889667000751814
0.644072,-113.51811981201172,-34.901790618896484,-3.133725900531495,23.371457632132298,10.257483326650416,51.167276167072494,-112.14659256811282,0.42946273782930827,1.9889667000751814
0.645903,-112.99009704589844,-34.090816497802734,-3.131103773452132,28.879098490135263,3.3263147189574918,67.90598661507688,-111.91717679841456,0.42074414932952814,1.9889667000751814
0.679735,-112.30357360839844,-33.01161193847656,-3.1275095922639964,42.09936334570724,-5.943749290281925,90.6237422096729,-102.64650418331867,0.40933176637791785,1.9889667000751814
0.682753,-111.40487670898438,-31.761066436767578,-3.12614222553579,59.74005833021977,-13.09205452088802,98.62838240746935,-109.42695698355831,0.3975540464575195,1.9889667000751814
0.685606,-110.45929718017578,-30.476314544677734,-3.1234813850013987,64.39921040084144,-19.704448595062928,114.63606453879645,-108.41036452277717,0.3842725918340806,1.9889667000751814
0.688394,-109.65765380859375,-29.08646583557129,-3.122825284620027,61.48877117285062,-19.346695239168707,117.9277376055007,-108.29557633420322,0.3714420944415277,1.9889667000751814
0.719756,-108.9676513671875,-27.8471622467041,-3.122561999689908,55.00454132958277,-13.77045537623672,118.83007389675107,-99.96299508464416,0.3593784950724195,1.9889667000751814
0.722869,-108.34307098388672,-26.66345977783203,-3.122251009783961,46.22083609467633,-4.158690449756493,120.08017609978184,-107.46109777071268,0.3479775314040215,1.9889667000751814
0.726086,-107.73230743408203,-25.54640769958496,-3.122475083349359,40.691569150213816,9.306861866836272,118.01961731021571,-101.51381213980036,0.3376743251551043,1.9889667000751814
0.728736,-107.06735229492188,-24.535306930541992,-3.1229094791499143,38.32070120627567,21.678356189723686,114.62540944369123,-99.72055400074437,0.32858600071172017,1.9889667000751814
0.759578,-106.38040161132812,-23.600889205932617,-3.123687766780914,37.23903146817743,29.928608282526497,109.14459927629537,-93.18979907070913,0.32093099410743187,1.9889667000751814
0.761722,-105.73312377929688,-22.71753692626953,-3.124304504638397,35.007772590874346,33.44256302557964,104.74310926192327,-104.87961511824408,0.31445199556972075,1.9889667000751814
0.7639,-105.1771469116211,-21.843570709228516,-3.124870349115714,30.669291071595605,34.22339366659008,100.7814561093433,-104.24920636583387,0.30900271417143593,1.9889667000751814
0.76603,-104.7174072265625,-20.980613708496094,-3.1252403763490317,25.497675030189757,35.16835716845051,98.12020950303123,-101.22774589022372,0.304321937138047,1.9889667000751814
0.799803,-104.31196594238281,-20.106325149536133,-3.125166508065003,21.115697158729084,37.65648238496485,98.18191343199312,-103.09652058249654,0.2999598402089224,1.9889667000751814
0.802247,-103.94511413574219,-19.189590454101562,-3.1248342727283505,16.751149930030284,37.92086193226312,99.81583128524358,-52.44397587330972,0.29566545123455257,1.9889667000751814
0.804382,-103.63352966308594,-18.239267349243164,-3.1247961793207417,14.546795167867879,34.003704047031206,99.74287803471867,-100.89964901933553,0.29168227989030426,1.9889667000751814
0.806234,-103.3582534790039,-17.309228897094727,-3.1253460414980867,14.0672441711467,26.889831507578435,96.22076804579653,-102.12768821647144,0.28849019013523275,1.9889667000751814
0.839827,-103.11399841308594,-16.455673217773438,-3.1265414836397833,14.198485402274848,19.160371093705344,88.92898103129598,-102.20932146138233,0.2865820722784007,1.9951040152319985
0.842641,-102.900634765625,-15.721174240112305,-3.128111225040521,12.91024854556062,16.348764703004615,79.48824574918017,-69.60795633142725,0.2861565344788732,2.010436765040765
0.84546,-102.71272277832031,-15.103880882263184,-3.129643537289278,11.770575987256986,14.962065546762776,70.32396237372062,-78.42526749993067,0.28699637185612725,2.0336933642398587
0.848062,-102.53197479248047,-14.558655738830566,-3.1310147697404638,12.115100120502538,11.751666608539805,62.14367703122812,-89.01539746232164,0.2887379972198538,2.062668833004439
0.880107,-102.36041259765625,-14.061899185180664,-3.1323687050202564,12.636038648499412,4.671878420592694,54.098328905978406,-95.46337413352138,0.29111904929900234,2.095771367861337
0.88312,-102.24833679199219,-13.614751815795898,-3.133681638546582,9.817391186538044,-2.68704743245838,46.34684283957931,-101.36433783109206,0.29384905234864384,2.131216032243356
0.886106,-102.2551040649414,-13.221400260925293,-3.1349570444177264,3.41163317320106,-10.019864460520257,38.87718403871329,-7.843942301853025,0.2966769183369781,2.1674471187543873
0.888577,-102.36689758300781,-12.887685775756836,-3.136230636260748,-2.1960799879829347,-14.694047216184185,31.44955822199952,-99.30727565062531,0.29945019190935046,2.2035128710598486
0.919717,-102.49445343017578,-12.622196197509766,-3.1375400314637547,-3.768817702403465,-19.943578640546953,23.79915212512745,-101.75220382949244,0.3021158351206692,2.239076611779759
0.921874,-102.57958984375,-12.419697761535645,-3.13884824056382,-1.9148885703729146,-25.685978222965133,16.129992036341815,-101.70040726702533,0.304640843909685,2.2739242076663673
0.924045,-102.61793518066406,-12.269810676574707,-3.1400127830417746,0.9463773510186267,-31.718503750757943,9.288974455173655,-100.8382976049569,0.3069289127298068,2.3074417168029733
0.926,-102.68453979492188,-12.152769088745117,-3.14084264090392,-2.2011814989626997,-34.4159230389144,4.412618526964174,-95.57935320607771,0.30880560651104527,2.3385182439434518
0.959951,-102.86022186279297,-12.069364547729492,3.141583700730429,-8.125310857410351,-33.016434353451714,-0.05276328804457453,-101.5694418290384,0.3103468302108454,2.3676048665451614
0.962871,-103.076904296875,-12.047802925109863,3.140741249340465,-11.048484973108653,-28.79957118253422,-5.028285375446776,-101.21967066814959,0.31172067933509345,2.3957366816140238
0.965729,-103.2333984375,-12.104938507080078,3.139802101251493,-9.573117154835355,-22.8288639893719,-10.590838393055703,-68.45986640679196,0.3130641497820465,2.4237639433103717
0.968332,-103.3016128540039,-12.252930641174316,3.138707566601924,-6.777558293589571,-15.027449240140017,-17.076145698665123,-102.72713512427035,0.31451912756232875,2.4525762389828665
0.999118,-103.30667114257812,-12.493314743041992,3.137656159066091,-3.491723544521806,-6.971195010333079,-23.300374145892683,-102.39950207422714,0.31607757268491815,2.4821300580904313
1.002406,-103.25067138671875,-12.793338775634766,3.1369083517558005,0.5320188557387786,1.1005897889859977,-27.711725245878995,-102.12920793281093,0.31758913817370105,2.5114872437666205
1.005739,-103.13383483886719,-13.110791206359863,3.136600866543098,4.102953971695074,8.814957619227478,-29.497380874183158,-102.08411569208046,0.3188690378160603,2.5394838044610846
1.008418,-102.9931411743164,-13.420233726501465,3.136515982004839,5.395057142366352,15.054496789253268,-29.958063473322177,-101.74101286280504,0.31989263546539604,2.565950390705058
1.039848,-102.8743667602539,-13.728012084960938,3.136388923763609,4.845290947203794,18.62688721575045,-30.672450034086737,-101.895716682144,0.3207724961126452,2.591578165266531
1.04191,-102.7844009399414,-14.042343139648438,3.136188691500983,4.473642425216829,18.262814227326675,-31.82484979613504,-84.45107847423662,0.32160821446109966,2.6169838688597036
1.044048,-102.71269226074219,-14.365851402282715,3.13581103853967,4.26929170298651,14.919281241801817,-34.025205482538404,-102.04865466643244,0.32252496345940035,2.6429512127739008
1.046122,-102.65906524658203,-14.714249610900879,3.1352564195544588,4.331533082458721,10.373573490652184,-37.26979122510458,-101.75577831830105,0.323620265794344,2.6700980414278055
1.079177,-102.63584899902344,-15.09790325164795,3.134627569714044,2.4947210448184567,6.7984326323536,-40.95954137701551,-89.97098931203465,0.3249247656142545,2.698628116520931
1.082102,-102.64448547363281,-15.513835906982422,3.1340055065079,2.374574815666759,2.529534945904835,-44.62159511184204,-101.7952469397832,0.32642357755270995,2.728461054803322
1.084268,-102.6357650756836,-15.953227043151855,3.133317031432133,4.568781410826406,-3.6500646183990386,-48.6667029307958,-97.93963207937323,0.3281212353413516,2.759637551541496
