Time [Sec],Roll Angle [Deg],Pitch Angle [Deg],Phase Angle,Angular Velocity X [deg/s],Angular Velocity Y [deg/s],Angular Velocity Z [deg/s],EKF Roll Angle [Deg],Step Frequency [Hz],Phase Variable
0.0,-96.47193145751953,22.37905502319336,-3.1224249607990577,-5.5754535374037895,-76.16184117054641,105.9611437268008,-95.51676381932627,0.4,0.025132741228718346
0.009997,-95.92760467529297,24.64008903503418,-3.122930917799607,-5.1189949833796,-97.82718755744851,102.58141586131676,-86.35691025554618,0.3996192618883038,0.04787323434814406
0.020022,-95.54423522949219,24.588829040527344,-3.12367569621458,-6.232213365254128,-113.01329355427146,98.09296387843204,-87.28441516288022,0.39897838846379724,0.06895532661114767
0.029236,-95.04603576660156,25.58907127380371,-3.1246232087528703,-7.826174184973181,-120.54665069933702,92.41999999911621,-72.48902999563036,0.3981803370806793,0.08900957336914588
0.040236,-94.57878112792969,26.493751525878906,-3.125789088085834,-11.08944561756122,-122.29166840962691,85.64609841805354,-92.7042310181423,0.3973143672411656,0.10858693283258451
0.049802,-94.1718521118164,27.293859481811523,-3.127167354331778,-14.605165964514809,-120.36170283699141,77.83926049862066,-88.69252555356645,0.39645982540051505,0.12818168604084904
0.059865,-93.79420471191406,27.994853973388672,-3.12847634040107,-15.221197801231183,-115.2229690337973,70.49126785744008,-92.288056283566,0.395660295199676,0.14806839512872577
0.070637,-93.4185791015625,28.61160659790039,-3.1297699756665995,-14.941067837706866,-108.09326240830116,63.28371756597329,-92.15408879870182,0.39495406263571686,0.16849107459373558
0.079613,-93.08184051513672,29.158599853515625,-3.130759395654638,-14.532602034772593,-97.57965467173808,57.7781547930253,-81.04787955109205,0.3943296137502747,0.18938324216527688
0.089526,-92.83021545410156,29.657461166381836,-3.131668374505133,-15.92185226666943,-85.63206237930916,52.7867857362688,-91.42826150136374,0.39379333072247075,0.21079013687750447
0.09952,-92.71556091308594,30.102638244628906,-3.132545156561466,-20.752395981681524,-73.08323585500071,48.06351867990822,-88.43028983640795,0.39335151828818843,0.2327569121784999
0.109557,-92.75377655029297,30.48504066467285,-3.1336146036321493,-25.837852601802243,-60.99663555258369,42.39944770689175,-2.38686406561558,0.3930490075131688,0.25557118572428394
0.120527,-92.89754486083984,30.77674674987793,-3.1349928446064683,-29.5981364097246,-48.71052883960519,35.12889916561535,-92.53523798945625,0.3929603367263079,0.2797100482291865
0.129558,-93.11804962158203,30.962148666381836,-3.1365281223422925,-31.599204251619916,-36.63102168864123,27.020878932088888,-86.10274254651615,0.39313432530481685,0.30549367684952156
0.139912,-93.3703842163086,31.046262741088867,-3.1381163298850883,-30.737698831227867,-26.324679457536778,18.59746446835333,-77.40298040507474,0.39359817414006437,0.33310948320093287
0.150132,-93.73743438720703,31.02931022644043,-3.139763817249575,-38.49868227566786,-13.198581566278124,9.82225086613251,-92.78728050768432,0.39438123802391317,0.36276012133741015
0.159384,-94.32925415039062,30.892406463623047,3.1414603812808064,-44.81161097455179,-2.788709675612142,-0.71488793933832,-90.72995245006179,0.39559424278629507,0.39516135903973865
0.170362,-94.89958190917969,30.620254516601562,3.1394405275196386,-42.17846035139057,4.307543750546343,-11.701871114395828,-93.77996551290792,0.3972841046179809,0.43063499341054756
0.180579,-95.34191131591797,30.234878540039062,3.1375882143381992,-37.27062109308874,10.72541958668799,-21.875123694428,-93.39601550724363,0.3994228082601486,0.46903496120054383
0.18999,-95.73230743408203,29.749723434448242,3.1357976740491686,-31.891970065108758,17.119993805589313,-31.78614994429775,0.9130440982288605,0.4020230701021104,0.5104693634029038
0.200292,-96.08348846435547,29.166488647460938,3.1341460629991955,-26.427318417741855,22.444607791950737,-40.995567209792746,-95.8955681853401,0.4050767975255002,0.5549163531538062
0.210195,-96.39423370361328,28.50912857055664,3.1328242292335413,-21.598501033042485,26.902045593361713,-48.42909772504399,-94.18291731054573,0.4085023486667813,0.6018914515786117
0.219855,-96.685791015625,27.810527801513672,3.1318955778771014,-18.308528683441573,30.81664557274946,-53.72045552033662,-89.59373928394983,0.41219541246619523,0.6507626153324806
0.230259,-96.9173583984375,27.1147518157959,3.1315873863437913,-12.189602970195391,29.9567828128528,-55.5606587468998,-95.99599853587705,0.4159334783436066,0.7001485775236453
0.240215,-96.9477767944336,26.475244522094727,3.1315944044683985,-4.413153843040373,16.568811199947625,-55.539109500068406,-95.97324752804127,0.4196414736124526,0.749580470114876
0.250391,-96.73371887207031,25.937097549438477,3.1322797972589203,1.041575353731501,-6.280699597511579,-51.61738221828175,-51.71039146266703,0.42301712614772197,0.7971571719394736
0.260388,-96.39100646972656,25.574905395507812,3.134041979090343,1.8869844728490621,-28.48469092406017,-41.701641430337396,-95.50420772090445,0.42546803851475407,0.8391356584301614
0.270318,-96.05912017822266,25.409427642822266,3.1361818686751985,-0.41102944507012806,-43.94557372364544,-29.78007215864623,-72.69684058861829,0.42677860590560923,0.8741031414871554
0.280386,-95.783203125,25.37834358215332,3.1381533975152927,-3.394020676652536,-53.502248051827635,-18.874619884494106,-94.9094142074356,0.42705806337336993,0.9026743152030182
0.289801,-95.58016204833984,25.430299758911133,3.139871986449407,-7.524466800087146,-55.053790408593144,-9.422967398763673,-94.66441266410644,0.4264653755859256,0.925783197496205
0.29992,-95.46189880371094,25.527725219726562,3.141071570113951,-10.13759813879106,-53.483290861786266,-2.850099629315628,-93.12970118519009,0.4253444963498628,0.9455361153680754
0.309846,-95.37802124023438,25.62644386291504,-3.1415486251096034,-13.602909128349015,-53.357372909342494,0.24060499281877645,-90.537537650332,0.42413120918290353,0.9646379901667986
0.318374,-95.34163665771484,25.70866584777832,-3.1412531131701953,-18.19196125997155,-53.08986855049895,1.8547984870458465,-94.22273871642871,0.42301483842666227,0.9842725756523617
0.32953,-95.41129302978516,25.782878875732422,-3.1410245476295446,-24.922894120965676,-47.406273481739994,3.10564496725272,-94.55025000536058,0.42204217159758683,1.004739935898348
0.338558,-95.68721771240234,25.844074249267578,-3.1408408812156425,-33.701061780002526,-32.691535915012544,4.121573067372529,-94.73850330657471,0.42124140830027273,1.0262262834300562
0.349394,-96.19741821289062,25.876039505004883,-3.1407790704332434,-40.80543864896168,-12.170678223552578,4.484232206638111,-64.99016340039366,0.42069482204115033,1.0492593589517112
0.359396,-96.83851623535156,25.83237075805664,-3.1414577748575403,-43.390637929054826,7.80821676387157,0.7483663249985489,-95.00118429900138,0.420958257408879,1.07734760743017
0.36941,-97.57123565673828,25.58743667602539,3.139357013572002,-49.65687545477255,26.396732830638538,-12.498187501801983,-96.71160498544711,0.42336105566373866,1.1188944215000953
0.379435,-98.50064086914062,25.088851928710938,3.137170669515407,-59.45278057372903,45.422325508999315,-24.956385953560833,-97.13595482251935,0.42780811090285514,1.173436653284512
0.388506,-99.38390350341797,24.67134666442871,3.139301511429722,-43.12396685329002,63.30933760555001,-13.046423734590457,-98.13324113690489,0.4306732512091872,1.218318837127436
0.399404,-99.6526107788086,24.68891143798828,-3.1401574224997963,-2.8676295232638775,68.51655771555184,8.194707286924974,-98.32965493838326,0.4304017106813736,1.2436726961147024
0.408443,-99.34391021728516,25.012588500976562,-3.1371110851160693,22.0606196794545,56.81473953512208,25.50919926686686,-90.2137757942003,0.4275956867546209,1.2530848648539172
0.419151,-99.10295867919922,25.468969345092773,-3.1354215126030875,9.695106040959075,27.520689977435616,35.04130198950994,-98.3889530999417,0.42354936014603956,1.254527674323129
0.42915,-99.10025024414062,26.047258377075195,-3.133776361191496,-7.736857508744216,-20.49996072769431,44.38201598142008,-97.89537260652078,0.41837310125444704,1.254527674323129
0.438663,-98.8424072265625,26.659313201904297,-3.134460448027983,0.5193850334866649,-46.195311677747995,40.39216780794631,-96.95481019366319,0.41416268997136685,1.254527674323129
0.449421,-98.29376220703125,26.922508239746094,-3.1377182079730157,8.472201651203312,-52.07903811937749,21.820280690487383,-96.06256281614367,0.4130562146365846,1.273598094040969
0.458903,-97.8117904663086,26.656597137451172,3.1396283765496067,14.201354081726253,-41.28859598556463,-11.008221007951429,-96.8951675822353,0.4170232400020966,1.324476736919201
0.469967,-97.68096160888672,25.797931671142578,3.1331011612723465,5.248748513929155,-4.316415312504544,-47.525535414837584,-92.99878887295947,0.42630593820358526,1.4090039928131128
0.479404,-98.16939544677734,24.516315460205078,3.1282030849873244,-10.983687822226388,39.96167122984416,-75.3167008834057,-97.19328773942198,0.43902387249804814,1.5156987227825993
0.489174,-98.93280029296875,23.085599899291992,3.1252863815443623,-19.97447329371021,64.58539452742681,-92.43918600049479,-97.25083831744956,0.4530049871058639,1.6311293401162295
0.499532,-99.58192443847656,21.777862548828125,3.125447680980908,-27.288490866411863,62.51051283117117,-92.12514756283593,-98.40008906378324,0.4655175874240714,1.738211469380828
0.509535,-99.99929809570312,20.88408851623535,3.1283208122692048,-27.778415212935002,32.21456672979763,-76.04598067165547,-95.4268387818777,0.47473245326192914,1.825359511676253
0.52,-100.05634307861328,20.37862777709961,3.130496895523874,-21.651716744413346,-4.899963196415161,-63.612440910347665,-99.22914395750487,0.48191590994241534,1.9003228208976117
0.5289919999999999,-99.90333557128906,19.916494369506836,3.1308779131692925,-18.686941654027788,-30.668812958353705,-61.33394444474477,-98.97081190576617,0.4889534045198909,1.9748203730726248
0.538364,-99.75965881347656,19.343536376953125,3.130585723262236,-16.673219179147733,-44.019466125181225,-62.91603482257317,-94.75363755872787,0.4964979938567037,2.0529462744141385
0.549429,-99.64142608642578,18.693687438964844,3.1302501221295502,-12.963352412583824,-44.08582824315707,-64.75766555867287,-94.01125283917118,0.5044955327777583,2.1343921824569514
0.559392,-99.55459594726562,17.98615264892578,3.1299299055736656,-9.70637073044772,-36.517111208758344,-66.52800961040516,-51.353075473062624,0.5126964990210341,2.217618762252248
0.569364,-99.52465057373047,17.21314239501953,3.1294288924908553,-7.942647693342115,-24.664712970339192,-69.3653521538985,-98.57471070580999,0.5209026895372517,2.3013934490285766
0.579448,-99.55413055419922,16.388629913330078,3.1292566081364663,-7.561112472531557,-14.91754978884722,-70.36876158448673,-98.35484250469958,0.5285432110527107,2.382129542807406
0.588278,-99.62735748291016,15.581010818481445,3.1295688822389676,-8.191282800829859,-6.381292916060234,-68.63772527142787,-79.3840812974738,0.5351224064079776,2.4566771957756424
0.59945,-99.73294830322266,14.822114944458008,3.1301874250368877,-8.694130719036306,-0.5557455988940806,-65.17546140001339,-98.52224157944339,0.540491941497035,2.5240377121684445
0.610422,-99.8501205444336,14.117183685302734,3.130902520749466,-9.669225600420251,2.255030283492257,-61.160478130393955,-98.38678134245089,0.544764614322432,2.5848438175419965
0.619684,-99.98211669921875,13.448919296264648,3.1314788075272215,-10.658428237534858,4.698327047493099,-57.93968193670693,-94.82827451123573,0.5482053519270911,2.640691179711271
0.629435,-100.14376831054688,12.783029556274414,3.1318050232783206,-12.713128432340406,8.555372864726557,-56.161408035348266,-99.03234950712934,0.5510868054847334,2.6932406444934247
0.640371,-100.35443115234375,12.092066764831543,3.131865252032104,-15.135446483748966,13.652060877163718,-55.93320800008355,-61.168080056483944,0.5536220067215336,2.743795588847253
0.649367,-100.5838623046875,11.364306449890137,3.1317600033498403,-15.444756722954871,18.953344644867673,-56.66769239248087,-100.20829784654187,0.5559227949528185,2.7930369642406347
0.659366,-100.79854583740234,10.604799270629883,3.1316344533981284,-15.197037714589555,24.54288630120826,-57.5138059815783,-99.81448391174118,0.5580113350355862,2.841089307973874
0.669405,-101.0133056640625,9.8260498046875,3.1315928573845144,-14.977921830920963,30.200272226574583,-57.87711057372045,-96.56137815211265,0.5598647788467233,2.887795725111046
0.67938,-101.21194458007812,9.039814949035645,3.13158742848627,-13.02288092629507,34.317288277110244,-58.02240918793413,-21.794036797240764,0.561472301058205,2.933073426575764
0.689308,-101.370361328125,8.249920845031738,3.1315372220481565,-11.19280772404467,36.10401112247222,-58.40485880031982,-99.37701835981657,0.5628362173915844,2.9769215107658473
0.699313,-101.50762176513672,7.451770782470703,3.131328960573343,-10.001231704464463,34.907273187426775,-59.69530693077784,-100.63711395450144,0.5639680159353289,3.0193968532612225
0.709315,-101.62445068359375,6.635631084442139,3.130951889112521,-8.64429851262554,31.835614174266983,-61.95980833877138,-84.52082771428157,0.5648620983666299,3.0604496943714214
0.719321,-101.71105194091797,5.798403263092041,3.1305149734687654,-6.893093077834453,27.854558161802302,-64.55908463874393,-99.63276539752536,0.5654909328470688,3.099892110309961
0.729332,-101.77027130126953,4.9464287757873535,3.130067906462106,-5.413472186142353,23.06325559111923,-67.20385682877792,-91.03869797125331,0.56582937157417,3.137549426753544
0.739275,-101.80789947509766,4.085821628570557,3.129667352130101,-3.6426269692797177,18.149200860672686,-69.56552450790406,-101.10622361259614,0.565863182365836,3.1733139741614185
0.749387,-101.82359313964844,3.215529680252075,3.129263235885492,-2.03756645182916,14.66834692188472,-71.93423411206449,-9.002027552486773,0.565592181689701,3.2071654590280403
0.759445,-101.83248138427734,2.3343617916107178,3.1289602875985514,-1.2293358666329763,11.555363556699055,-73.70836208859696,-101.35812139343524,0.5650301472881274,3.2391712975924274
0.769062,-101.84330749511719,1.4543479681015015,3.128741378330268,-0.6251376528187657,8.841457045659835,-74.99378319982584,-21.76859310025631,0.5642026485100152,3.269473860623626
0.779163,-101.85565185546875,0.5754426717758179,3.128533432773028,-0.4874230031830315,5.978861158370845,-76.21662611787907,-101.63039493527779,0.5631342830728454,3.298211020520002
0.789409,-101.8782730102539,-0.30355238914489746,3.128345841112987,-0.9019544409870985,2.9091382903973377,-77.32875166948641,-92.56803610412736,0.5618507661311262,3.325529216264
0.799458,-101.92499542236328,-1.1814931631088257,3.1281487720601655,-2.5037324122112308,-0.5184794998131093,-78.51527847172268,-98.5580766732522,0.5603717381514729,3.3515383341791614
0.808691,-102.00724029541016,-2.0618181228637695,3.1279671979117367,-4.53763062556927,-2.503647248290017,-79.64005353367287,-101.1794901084652,0.5587183908739999,3.376359241574798
0.819325,-102.1139907836914,-2.9520134925842285,3.1277953917819508,-6.295949702380925,-1.7610510457579538,-80.72877202699456,-99.60389850271135,0.5569090020234546,3.4000958279779825
0.829321,-102.21913146972656,-3.853452444076538,3.1277500286191806,-6.382736647296046,1.5156850375617081,-81.07762393885297,-100.81092613456029,0.5549882479051632,3.4230189985127275
0.838329,-102.28239440917969,-4.74371862411499,3.1280543695631087,-4.258102145578737,7.053795903060628,-79.3439238520178,-96.98943604831095,0.5530614655888789,3.445783608221867
0.849319,-102.29328918457031,-5.599381446838379,3.1286055501773085,-2.1537669660747056,14.778051712786171,-76.12135180914657,-101.42070079775843,0.5512118519232612,3.4689120195596512
0.859319,-102.27643585205078,-6.417712688446045,3.129330034941863,-0.7081249314820965,23.412146776565358,-71.86264689937357,-87.75519808716336,0.549501694937287,3.4928004484038824
0.869333,-102.22242736816406,-7.188124656677246,3.1302037840352783,2.253049315189542,30.531317835266762,-66.70650977417426,-98.29057261387565,0.5479860791746303,3.5178037634716306
0.879337,-102.1060791015625,-7.8942437171936035,3.131119473098735,6.038298745188765,33.76784736970691,-61.27293719507822,-100.78914439194835,0.5466840156803524,3.5440536380674588
0.889328,-101.96333312988281,-8.529335975646973,3.1319737929180116,7.761495708627745,32.57031371762316,-56.19577754725177,-100.86620341283464,0.5455728524094983,3.5714211630800774
0.899335,-101.86854553222656,-9.102459907531738,3.132635648725281,5.6493911889428245,28.27086502190375,-52.28019060552896,-100.84879413162611,0.5445718841138283,3.5994112470943254
0.909336,-101.87101745605469,-9.63106632232666,3.133144678287422,0.6048261643310286,23.071240082258974,-49.310140901556856,-1.11171832024279,0.5436085571937157,3.6275749461535347
0.919425,-101.95008087158203,-10.111830711364746,3.133786087304649,-3.6279301097331427,18.894164470804096,-45.60149503130709,-101.75146872750138,0.5427313884608612,3.6562194654535127
0.928427,-102.03033447265625,-10.535271644592285,3.1344200567206686,-4.519568617195995,15.965104439588536,-41.93105723927437,-101.03910343507751,0.541929741488919,3.685283387835085
0.938448,-102.06973266601562,-10.914717674255371,3.134999175201269,-3.807390768854289,13.636278871312758,-38.5603076574543,-101.10985232859038,0.5411719646615689,3.714572585499826
0.948434,-102.07036590576172,-11.25548267364502,3.1355926645412966,-1.7517332803478811,12.984885437715935,-35.08956410618525,-99.03083531077465,0.5404623254277209,3.7441166280625047
0.958426,-102.02222442626953,-11.55936336517334,3.136188405693305,1.1297897014614486,13.514200338956181,-31.590529911374,-101.10315577438796,0.5398012019772018,3.7739209163340868
0.968427,-101.94812774658203,-11.831089973449707,3.136754860044312,2.0833918985180677,15.214318093189688,-28.25872777574864,-100.93369850400569,0.5391738170101548,3.8038956501378016
0.978461,-101.87931823730469,-12.078319549560547,3.137258950871155,2.545240965901279,17.623327521000476,-25.297086034644824,-98.91545586760797,0.5385496699464393,3.8338513085280868
0.989429,-101.80511474609375,-12.305366516113281,3.1376918340693924,2.8962066078643875,19.419860225557883,-22.7536089650967,-100.46076058477843,0.5378984642813817,3.8635977363953833
0.998464,-101.73017120361328,-12.513152122497559,3.138027403211383,3.055691311540774,19.761731684084534,-20.780896653540694,-100.48014244808287,0.5371791519853965,3.892875321221248
1.009428,-101.65611267089844,-12.709023475646973,3.1382090682592536,3.578030028317499,19.342527116227707,-19.707653661330955,-97.45463033075768,0.5363204303237326,3.9212317754445025
1.019428,-101.57289123535156,-12.90794849395752,3.1382390097829016,4.340131009963297,19.523745695286486,-19.517267260858727,-98.91471558131252,0.5352588544932503,3.948259704261462
1.029117,-101.4822998046875,-13.110207557678223,3.1383746829715684,4.310376144617783,21.456836079467248,-18.710978797264357,-61.49723460101228,0.534107522167816,3.97465697561151
1.039272,-101.39442443847656,-13.300604820251465,3.1385606100907473,3.9377684079392545,23.473667997966956,-17.614627567545174,-100.90320567614775,0.5329348429405005,4.000847780077797
1.049339,-101.3034439086914,-13.451380729675293,3.139070712993474,4.982575615086935,21.27342671723219,-14.638029419706324,-98.67015012207543,0.5319974396527152,4.02844318526156
1.058811,-101.20845794677734,-13.523404121398926,3.139655297980994,6.472940821230289,14.133577260818571,-11.234385646843476,-94.1659132422212,0.5313625805216796,4.057880632660139
1.069293,-101.15908813476562,-13.544580459594727,3.139991354612841,4.2478978429587375,7.3067357372727715,-9.281118883854495,-84.88274733733844,0.530865043148828,4.088141008736454
1.079374,-101.19674682617188,-13.52488899230957,3.140802402913278,-0.3907721978893545,4.998705533698743,-4.581990142907564,-100.04899468644463,0.5308936251753723,4.121675829297765
1.089388,-101.24457550048828,-13.362836837768555,-3.1402199573185405,-1.3159643298150117,7.190792422338159,7.9628607844171215,-99.97335768835266,0.5325107276880836,4.165193414299608
