Time [Sec],Roll Angle [Deg],Pitch Angle [Deg],Phase Angle,Angular Velocity X [deg/s],Angular Velocity Y [deg/s],Angular Velocity Z [deg/s],EKF Roll Angle [Deg],Step Frequency [Hz],Phase Variable
0.0,-94.5299072265625,-7.58439826965332,-3.1239672716542968,60.43358890835369,-5.43561651320518,95.47185829387215,-93.59396755105199,0.4,0.025132741228718346
0.006048,-93.33972930908203,-5.741272449493408,-3.124812796829774,55.98958438149284,11.544775055938242,89.74663663721654,-91.88612601025913,0.3996676709513463,0.048177397461786786
0.040355,-93.42703247070312,-6.028127670288086,-3.1257813360880613,47.65623108460578,30.293155969097587,84.64463559137876,-86.38774832258215,0.39911377620997035,0.06980903453981106
0.049279,-93.06689453125,-5.318062782287598,-3.126526133364028,36.62546532975143,47.075190307007375,80.34589211269116,-88.82988976448597,0.39841340944910625,0.09048555854406755
0.053632,-92.80292510986328,-4.636717796325684,-3.1271579536228535,29.876299278767956,58.13568104512962,76.75774785487333,-92.07857521176071,0.39761718501810217,0.11051578570230472
0.056411,-92.52800750732422,-3.9767556190490723,-3.1276958562870765,27.36572323045178,70.00797050195915,73.67811801095213,-91.67482261092829,0.3967605568719864,0.13011645686879186
0.076597,-92.23408508300781,-3.32969069480896,-3.128008905577679,25.371475332442724,79.2486017319611,71.7894136110927,-27.966190694853324,0.39585173559420644,0.1493353653834572
0.079702,-91.95936584472656,-2.6849429607391357,-3.1282970152791143,23.834607637108984,87.20998634174384,70.05729812814498,-91.61174025240933,0.3949084451536894,0.16828059483626792
0.082512,-91.70923614501953,-2.0691447257995605,-3.128942703575425,22.130256873137363,86.90919164088565,66.47336809704505,-90.13424928790577,0.3939959158511679,0.18735983353300228
0.08535,-91.48086547851562,-1.5257989168167114,-3.1300995095491957,21.67412147243828,82.17374635723495,60.24359353621145,-18.625659622709556,0.39320952956553584,0.20717431627299943
0.117018,-91.2509536743164,-1.0827434062957764,-3.131627627986599,21.6658262076913,72.25840172026246,52.1018133851649,-90.06190581226578,0.39263205952968655,0.2282520484165066
0.121472,-91.02733612060547,-0.7439703345298767,-3.1333752593506112,21.43730173844101,57.67950637084281,42.85863790969712,-90.1585111805633,0.39232540632264656,0.25099508936727943
0.125153,-90.83027648925781,-0.5118799209594727,-3.1353015652123513,19.52668267662959,41.84776308234606,32.74046056003735,-89.51839910491927,0.392347193055706,0.27578251173472695
0.12869400000000003,-90.67749786376953,-0.38367849588394165,-3.137182423143578,17.014127581001407,25.076692905601437,22.913227070905315,-86.68269101807864,0.39270880016650533,0.3027064574074806
0.156367,-90.54666137695312,-0.3420015275478363,-3.1389446277755297,15.572914977446406,7.901263577161008,13.737835246534384,-89.5285388787698,0.3933999617275018,0.33172377520448376
0.158522,-90.44052124023438,-0.3690018355846405,-3.140422441902062,12.143665679158824,-9.094529214787148,6.06387609608317,-88.53902646921864,0.39435844952019566,0.3624641802143613
0.160585,-90.42023468017578,-0.44500666856765747,3.1415073865379672,5.695176935157181,-25.819033723091565,-0.4417428314161185,-88.32386115174747,0.3955256027316691,0.3945758922817926
0.162682,-90.50836944580078,-0.574343204498291,3.140220294849676,-1.919010162650194,-41.24222583128941,-7.116710483052908,-88.5090620973164,0.39691441742305267,0.428153678902059
0.196726,-90.66541290283203,-0.7762389183044434,3.1388075055146265,-7.342290286997273,-53.74291318232762,-14.468172860331862,-89.85876772999359,0.39857629452831705,0.4635344290697968
0.199399,-90.822998046875,-1.0665172338485718,3.13719731192821,-9.18580274021332,-61.96146124455052,-22.87251402081016,-87.20317839008433,0.40060195286915223,0.5013053029700023
0.202119,-90.93392944335938,-1.4602817296981812,3.135396595376349,-7.623823000622383,-65.21480328963266,-32.282684206390165,-90.1395769574636,0.4030990026220222,0.5421652923314804
0.204625,-91.00330352783203,-1.953839898109436,3.1336940737164958,-6.477370625793865,-61.909101014373206,-41.18488297811257,-70.27914082760797,0.4060782275805277,0.5862117721236793
0.237021,-91.13973999023438,-2.5319108963012695,3.1320263680597527,-12.798940367751507,-50.045847897815605,-49.95592504229781,-90.58194606989645,0.4096039348648472,0.6338790918609263
0.240446,-91.4196548461914,-3.200284242630005,3.130359049087972,-20.427687080991824,-30.285608610064724,-58.84365064316895,-90.27565997671756,0.413797700829574,0.685965474805305
0.24334300000000003,-91.7088623046875,-3.969595432281494,3.128632040031355,-21.6005927784758,-6.4067810476086064,-68.10575598792143,-90.71878522732504,0.4188568875810989,0.7437529590087346
0.245923,-91.85224151611328,-4.856403350830078,3.1266542178042425,-15.409613692127863,14.383871250500981,-78.62303836625797,-39.32563179534968,0.42514513913106255,0.809580763173921
0.2765,-91.80574035644531,-5.865871906280518,3.124633408872489,-5.425109120940761,28.25528536040695,-89.21556210849137,-85.46107832019358,0.43300465093868185,0.88567618920123
0.278645,-91.61969757080078,-6.967291831970215,3.1228309363012654,4.036985443370152,32.10530760873952,-98.49972896426299,-91.12039136707017,0.4427169690849095,0.9739069684834447
0.28071,-91.34992980957031,-8.108360290527344,3.1216928837588234,12.978252470258207,32.744934333943704,-104.1684581262934,-89.71814087998638,0.4542976107098913,1.0744870133431763
0.282785,-90.9925765991211,-9.21413803100586,3.1215552991866584,21.631437912767577,34.42348064323102,-104.47854188442281,-90.1129089210108,0.46733628817146533,1.184955800721784
0.316774,-90.55416870117188,-10.202040672302246,3.122661331421346,28.65711734210985,37.35628874075363,-98.23447173765636,-89.5888054738685,0.4807838046903331,1.2988126439246965
0.319496,-90.16311645507812,-10.987420082092285,3.1251788117972934,24.388981648640364,38.86516632086865,-84.80096496110201,-89.28930668813989,0.49295519067002314,1.405496254855899
0.321968,-89.94721984863281,-11.521570205688477,3.1285877191663847,19.30284883979181,32.08993285291782,-67.02595772165577,-83.183999748103,0.5024477798941382,1.4961132401071082
0.32396499999999995,-89.7806396484375,-11.805049896240234,3.1325512544595253,19.191976086542287,18.79910872812503,-46.510692247578746,-89.08247253489391,0.5084414049658821,1.565342022177191
0.35729,-89.6838607788086,-11.856696128845215,3.136496595347396,11.38883073812945,4.7293672690630455,-26.186356174012975,-78.6873959647748,0.5109673452637108,1.6131592887957553
0.359998,-89.93303680419922,-11.73452091217041,3.139914868078744,-13.142740500945038,-5.627351876038485,-8.645273522129559,-89.31338907961285,0.5106388863989451,1.643200546044741
0.362571,-90.61329650878906,-11.481294631958008,-3.1402501218544177,-38.91631077737371,-12.403118098744574,6.970106022047285,-88.89001867117369,0.5079322308886552,1.6582785153938553
0.365176,-91.4210433959961,-11.118436813354492,-3.1378772668165817,-51.162911676192856,-13.253738758920562,19.46143387948846,-89.71678949115466,0.5034784315454202,1.6622087921009399
0.396694,-92.05514526367188,-10.697471618652344,-3.1362015426790073,-50.23338440185665,-5.325200955743223,28.43499617520645,-90.52093034555939,0.49792645471232005,1.6622087921009399
0.398855,-92.46516418457031,-10.270729064941406,-3.13534266741484,-45.04376227425136,6.947536515708625,33.11200577541312,-91.59308492283762,0.492021854959063,1.6622087921009399
0.400972,-92.73485565185547,-9.878205299377441,-3.13510691609139,-37.28406290537532,14.243482688526893,34.46125500443578,-63.70886290753375,0.4863167340877146,1.6622087921009399
0.403069,-92.91371154785156,-9.522930145263672,-3.1352341579565026,-29.393671281825682,12.535832943186154,33.85031165865106,-92.4586752977109,0.48110780035561895,1.6622087921009399
0.435991,-93.11537170410156,-9.181530952453613,-3.1352729230836425,-28.946177777973958,5.4403553838287,33.71695563020114,-92.33150735891012,0.47628462764008367,1.6622087921009399
0.438687,-93.44778442382812,-8.850536346435547,-3.1356741721791765,-32.872891097854726,0.44741060776675967,31.68888805051677,-92.20094296740848,0.47212050633294284,1.665970692030836
0.441169,-93.84809875488281,-8.58591079711914,-3.1365650455168894,-35.70244381059966,0.8446297838610922,27.034179017950194,-92.79353835601502,0.4689968876676599,1.6760086234139913
0.44327,-94.15894317626953,-8.421235084533691,-3.1378497874840425,-29.207453004294457,4.518551345896486,20.1925202527737,-93.25998102713355,0.46720292255233364,1.6942047516968446
0.477054,-94.34296417236328,-8.362056732177734,-3.13928511873868,-27.14896717714143,10.68288799872632,12.47329487737187,-93.10907782914245,0.4667953323828281,1.7209990125169787
0.479771,-94.6059799194336,-8.37633228302002,-3.1402294483326743,-33.14427158905225,25.76949777613605,7.389290526223424,-35.99247797130688,0.46725624531328946,1.7532246296084202
0.482457,-94.86932373046875,-8.389433860778809,-3.140318485337734,-28.69570108073125,40.70753471739872,6.925887804247446,-60.708585269860166,0.46777551913537135,1.7858458990101318
0.485005,-94.96427154541016,-8.296414375305176,-3.1393192116506428,-21.36308831801424,34.19756189114909,12.369937039756653,-93.24151270569838,0.46740340056279744,1.8128990117513033
0.515789,-95.15238189697266,-8.038703918457031,-3.138310516761527,-24.890390958252876,-3.882796484178053,17.893715927221066,-94.14469147369071,0.46618356051141857,1.83460235245279
0.518012,-95.5794677734375,-7.72721529006958,-3.1388210825898972,-25.86404466972195,-59.01450099506765,15.177993439636268,-94.22118002862388,0.4654436599551243,1.859244597127248
0.520022,-95.99874877929688,-7.510953426361084,-3.140502138296081,-18.382796745381704,-112.11009665918566,5.998188886174688,-94.80180982948389,0.4661166218036236,1.8927176287815304
0.521864,-96.34879302978516,-7.45434045791626,3.1403141927985176,-17.027924563124834,-136.55508415147284,-7.057592207578686,-90.95765650876,0.46862959854535097,1.9377940984179227
0.555769,-96.92626190185547,-7.611903667449951,3.1372623081601465,-36.147591144471484,-142.09541941748535,-24.048575265690683,-96.1532452983868,0.473325424197152,1.9967437072392924
0.557818,-97.87152099609375,-7.974911212921143,3.1342837009996996,-54.43197681674436,-136.06624751257502,-40.98659575631793,-72.68260303975862,0.4798540239146218,2.067504022568856
0.559653,-98.82971954345703,-8.460893630981445,3.132455970538924,-59.20659323528509,-118.524422931393,-51.738143377902155,-95.37483730773253,0.4870059364580858,2.1425909319066965
0.561459,-99.51575469970703,-8.942800521850586,3.132344167370491,-50.209557286937056,-92.64489080772806,-52.73482507215793,-98.78500253105356,0.4933328165105205,2.2129433771370683
0.596237,-99.84735870361328,-9.31266975402832,3.1338719728327753,-35.247867400578635,-58.535861828600666,-44.169597098232686,-95.55109476084525,0.4977720938643901,2.271833194423881
0.599536,-99.86296844482422,-9.539380073547363,3.1360076001533175,-16.981730286220746,-24.98361791778167,-31.95648120181953,-72.67799467263386,0.5002392090819835,2.318610479575111
0.603058,-99.64160919189453,-9.699554443359375,3.13746367683595,-1.997532792113011,5.7556659442204605,-23.57264256168232,-97.64769082932757,0.5015191785540841,2.3580837214416426
0.60561,-99.3581771850586,-9.907503128051758,3.1378226067057855,4.0270756926581095,28.299259825830784,-21.462240466648023,-98.5819826158261,0.5025044879806069,2.395785982492994
0.635867,-99.14185333251953,-10.201042175292969,3.1374136855518566,5.861075399907621,38.60991190630152,-23.738389054723722,-66.93677330034336,0.5037243803929045,2.4350240807309977
0.638013,-98.99778747558594,-10.571793556213379,3.136591985011181,3.748687427372145,44.47976623372672,-28.364805736200815,-83.60831274286491,0.5054007906920709,2.477207213549053
0.639959,-98.93450927734375,-10.988966941833496,3.1359718461082866,0.6491585209952013,42.09496128878717,-31.862050421449517,-98.01841936788958,0.5073591868991796,2.5212674480463275
0.642059,-98.96150970458984,-11.390823364257812,3.135580928584245,-4.434342370506222,33.7524077270881,-34.087353373796354,-98.1598782645789,0.5094319627350415,2.566169400609168
0.676223,-99.0482406616211,-11.76953411102295,3.1354386196158788,-6.242594825905724,27.6773318283134,-34.92486775472873,-97.90109169128667,0.511466109752232,2.6109588774928665
0.678761,-99.06656646728516,-12.138216018676758,3.135411219211244,-3.1089394663101935,27.210274955131464,-35.086862766368505,-97.56838077262582,0.5133943518370041,2.6552107432877476
0.6813170000000001,-98.97673034667969,-12.509964942932129,3.1354521848419603,0.8238189978728567,30.236916191471703,-34.82272227569119,-96.83093650303674,0.5151799307413221,2.698687384906681
0.683902,-98.84178924560547,-12.892305374145508,3.1353067546183775,3.29195780021527,32.02993647124843,-35.59888106730934,-97.95016051443974,0.5168930525898896,2.741820956648885
0.715988,-98.7318344116211,-13.307402610778809,3.1348486581453097,2.441789426628385,32.11813128890622,-38.15080366576619,-97.38707191720331,0.5186232035813366,2.7851691642717076
0.718415,-98.69920349121094,-13.774725914001465,3.134169102590984,-1.5761998732777864,32.043938359046955,-41.98130694099815,-97.57080893860245,0.5203907487693078,2.828861035153591
0.721949,-98.73883056640625,-14.284015655517578,3.133637970591236,-5.530767451645804,31.836140098833074,-45.00312264868978,-89.39734459936983,0.5220865583535579,2.8722132360837205
0.724987,-98.80268859863281,-14.79039192199707,3.133551254650714,-8.206056500004596,32.01748162129691,-45.523156176621626,-97.12062189683822,0.5235556213459078,2.914247297017805
0.756029,-98.86878967285156,-15.241520881652832,3.1340979350428717,-10.082420455581111,31.67237265310368,-42.45660956005558,-64.55477007408642,0.5246691319024874,2.9541396600616143
0.758218,-98.9345932006836,-15.601180076599121,3.135015179707642,-10.500786617717317,29.17055973749263,-37.285176226210034,-98.5321437113892,0.5254228309501355,2.9918412246508352
0.760278,-98.99103546142578,-15.870361328125,3.136023608018493,-9.187243910128192,23.04780741076395,-31.586664024303772,-98.153567012838,0.5258861427704745,3.027765588787858
0.762228,-99.04320526123047,-16.060523986816406,3.1369700331157784,-7.14874022827886,13.652848056465563,-26.232437752795757,-86.49273194310149,0.5261437440620466,3.0624265462932216
0.796233,-99.08553314208984,-16.180620193481445,3.1378636986969575,-3.022061807945158,2.4645363044420545,-21.170056926785925,-96.27002252868998,0.526263893314722,3.0962400527338514
0.798956,-99.08514404296875,-16.233999252319336,3.138742577187539,2.449765593475079,-8.04242309673766,-16.180385172038168,-95.64910173856501,0.526301061833018,3.12953972504364
0.8015,-99.0662841796875,-16.220428466796875,3.1397130630530907,5.048611591529911,-16.689574067115327,-10.668718771293129,-97.64581275520482,0.5263019314070949,3.162613659727326
0.80404,-99.09522247314453,-16.137847900390625,3.140681379243419,4.378592232066462,-23.970948458226196,-5.173978433085026,-98.20325081384111,0.5263152750362706,3.1957660258476803
0.83632,-99.16773986816406,-15.999093055725098,3.1415420001511976,4.197337367627719,-29.53958119797008,-0.2878074163165296,-70.53513644186219,0.5263808220070734,3.229247233642079
0.839613,-99.22254180908203,-15.82276725769043,-3.14087505337914,5.042596756192069,-30.70186765884198,4.079581491242114,-98.76135755101677,0.5265279090131846,3.2632448910259138
0.841995,-99.2343978881836,-15.627291679382324,-3.1403157695097197,6.646305109630375,-30.040794139643957,7.259999314103314,-2.680144159527281,0.5267642235941714,3.2978124235463584
0.844309,-99.1935043334961,-15.432331085205078,-3.140000311874011,9.807277383924548,-27.42706686693496,9.049873437993604,-98.10125502197346,0.527074929317518,3.3328622174824942
0.876145,-99.12454223632812,-15.258235931396484,-3.1399351239095528,9.157466846667877,-22.506178532223817,9.413812383954916,-97.99758832790613,0.5274250958664484,3.368179473314505
0.878282,-99.14412689208984,-15.127535820007324,-3.1403066232397263,2.6726654019438603,-19.050627029216166,7.3053509164185515,-97.64948177111111,0.5277243654280838,3.403198935556917
0.880325,-99.30779266357422,-15.058557510375977,-3.140956854740528,-5.9029512897089695,-16.4678695417513,3.6176434179562804,-97.81345868933215,0.5278885517922398,3.437388448698805
0.882476,-99.54489135742188,-15.043872833251953,3.141542854493214,-11.06811237546233,-15.002302191163322,-0.2840292544884548,-98.11292104127592,0.5278820087030212,3.4705155531812557
0.916394,-99.73917388916016,-15.058361053466797,3.141033825258459,-9.850888995548727,-14.589676803024512,-3.1934995561124784,-41.38113025147119,0.5277348583526795,3.502758785072116
0.919166,-99.85985565185547,-15.074734687805176,3.140871786691422,-9.277428020381748,-11.9476068065809,-4.124475470882961,-99.57013336721455,0.5275481185980047,3.5347440236701564
0.921852,-99.95706939697266,-15.061095237731934,3.141270568177784,-8.375158323475771,-6.945940385876957,-1.8446212917391158,-98.53339745305945,0.5275196638691481,3.5677120632119372
0.924053,-100.05794525146484,-14.978903770446777,-3.1411552170345622,-10.410383087636674,-5.592197319267253,2.507779299294463,-97.68794972464848,0.5278037749786066,3.6026422239732034
0.956546,-100.19650268554688,-14.830297470092773,-3.1404743379740356,-10.422422149822468,-5.981261542977281,6.420070034412512,-94.31350974645643,0.528397254903409,3.639534057557023
0.959671,-100.26271057128906,-14.671067237854004,-3.1402236434822153,-5.211861223542855,-4.303041375222835,7.864461664139333,-99.47390559344436,0.5291366943970338,3.677380271602546
0.962112,-100.18812561035156,-14.571503639221191,-3.140689065259365,2.500223189081725,-0.86316531644292,5.186920787788553,-98.6974028032241,0.5296941344710079,3.7141294099222226
0.964558,-100.02861785888672,-14.578697204589844,3.141471921680372,7.667410706584465,2.5650028376042417,-0.6919408516046043,-71.56451763793729,0.529776355678906,3.7479276850377015
0.996272,-99.9050521850586,-14.685362815856934,3.1402498723177676,7.104711548228488,2.5149509979229765,-7.686269712656516,-99.37462587102574,0.5292568106850217,3.7779501177066375
0.998527,-99.90052032470703,-14.834245681762695,3.1395047669099045,2.7185542413260024,0.1031678929892468,-11.950826387000916,-99.02721234256887,0.5283774384098139,3.805679044913719
1.000543,-99.96636962890625,-14.942360877990723,3.1394906547802264,1.5309550993900352,-5.693326807665755,-12.039533468846455,-99.0129928787609,0.5275426401302138,3.8336327862054946
1.002524,-100.00316619873047,-14.9581880569458,3.14007448266809,3.536854232906077,-12.41739575543084,-8.698760733519928,-98.99782378379926,0.527095612405368,3.8639705098266104
1.036502,-99.97372436523438,-14.874464988708496,3.14111398432553,7.481568089457588,-15.254356662104303,-2.741852443471739,-96.1367552950058,0.5273041154303918,3.898398967043385
1.039279,-99.85346984863281,-14.693094253540039,-3.140544473101873,11.859699710641898,-10.76171435816379,5.996833947398087,-97.48553891967016,0.5284657607836796,3.938829294764192
1.041714,-99.70442199707031,-14.41891860961914,-3.139037967023974,10.75107548475785,-6.572224877892417,14.594043001451443,-98.74654668462459,0.5305659169543129,3.9852294481933326
1.044295,-99.61399841308594,-14.084568977355957,-3.137853345020972,9.21091222314958,-2.7398680600744387,21.34205987310706,-93.4748946204958,0.5333931837345883,4.036330129025613
1.076745,-99.4957046508789,-13.732397079467773,-3.1371069355984162,11.43418404799198,1.5823107581508322,25.57183210155588,-98.52073832767078,0.5366460724267914,4.090282713612263
1.080105,-99.28529357910156,-13.39772891998291,-3.1368980627974925,16.3060845584285,4.193560699903524,26.705978183047325,-88.93461216809645,0.5399392058317561,4.144692548211196
1.082877,-98.97300720214844,-13.085951805114746,-3.1368245166239217,24.531423536233685,4.147586696600168,27.039048942828412,-98.10311866688332,0.5431872347119631,4.19902589639713
1.085338,-98.56729125976562,-12.72484016418457,-3.1359161023310103,31.393858029318068,2.9839143476569907,32.05860960538414,-96.46329128326751,0.547076171224165,4.257590265673048
