Time [Sec],Roll Angle [Deg],Pitch Angle [Deg],Phase Angle,Angular Velocity X [deg/s],Angular Velocity Y [deg/s],Angular Velocity Z [deg/s],EKF Roll Angle [Deg],Step Frequency [Hz],Phase Variable
0.0,-95.44114685058594,-7.51799201965332,-3.1212154586533924,28.592404714818564,-48.442474650533455,111.4455670642676,-94.49618500058014,0.4,0.025132741228718346
0.002351,-94.91226959228516,-5.207601547241211,-3.1209035586578224,31.533494416709807,-40.04779991527802,112.52485306634551,-93.92498468544275,0.39958102150743646,0.04763296294893696
0.039555,-94.7638931274414,-5.201035976409912,-3.120745340429699,32.06008834133945,-28.974738213988367,113.2083705871562,-92.11538641367588,0.39883674893432824,0.06806297648668014
0.042382,-94.44570922851562,-4.054094314575195,-3.120512698180625,30.361198313609254,-16.16657965217828,114.08771646166032,-89.48470885407716,0.39783640344023175,0.08683727238474431
0.045132,-94.15512084960938,-2.904972791671753,-3.120216170962907,28.869648923418552,-1.4296696905793873,115.33708783444987,-15.354624400415664,0.396628641170781,0.10424547668633376
0.047295,-93.86424255371094,-1.7477048635482788,-3.1198497557709075,28.310691854954094,14.43643809390069,116.95227730899616,-92.49509244809323,0.3952475813568294,0.12048893446108572
0.079982,-93.59730529785156,-0.587736189365387,-3.119646899225446,25.387548475107057,29.046957219177497,117.70806506141474,-7.998902496669613,0.39373991406410985,0.1358501194381498
0.083637,-93.40228271484375,0.5476239323616028,-3.119810437113839,21.65820542412486,41.57198394932304,116.58720369785897,-93.07132568061445,0.39217126762237303,0.15073343159224753
0.087015,-93.258056640625,1.6391427516937256,-3.1202042653245834,18.806635596590386,50.91950422474111,114.30185655251856,-92.09913430465585,0.390591350755331,0.1654473686129131
0.089754,-93.13243865966797,2.6889655590057373,-3.120742072741993,17.600634217483112,57.45619333592924,111.27682041063326,-87.94807156506198,0.3890371368628195,0.18022353308104322
0.119571,-93.00940704345703,3.6962428092956543,-3.121405210305623,17.123207409593803,61.09729888057134,107.59444003283679,-91.17526995816868,0.38754087506292756,0.1952661671471048
0.121667,-92.88812255859375,4.65812873840332,-3.1221780742061056,17.290232855557296,60.46489166531986,103.33926633086469,-90.33046113891038,0.38613026651955995,0.21075296359450454
0.123777,-92.76763153076172,5.573869228363037,-3.1230138730664305,17.180360725021178,57.69102889997262,98.7611817755019,-91.85407642030827,0.38482304994881034,0.22680075981639947
0.125915,-92.674072265625,6.443854331970215,-3.123889148876833,14.937239516677073,51.970335658736744,94.0124790946722,-91.66708622298299,0.3836294868221924,0.24348052684906668
0.15989,-92.63040161132812,7.270854473114014,-3.124774242028739,11.44944952078696,42.479237976775835,89.26929520669187,-91.10363426504381,0.3825508044943878,0.2608071174459105
0.16358,-92.61054992675781,8.056868553161621,-3.1256753466252625,9.014693694899806,31.548981870652813,84.46744682393029,-91.66627395838617,0.3815881845643393,0.27879517398552045
0.167021,-92.57352447509766,8.8004732131958,-3.1265643967445906,8.313363040733728,21.403299349205398,79.71696146372722,-91.55376761299732,0.3807356494718325,0.29741443076490687
0.170552,-92.50494384765625,9.504829406738281,-3.1273772688175234,8.560970204751383,12.651919692093337,75.34864567815386,-91.61468101188078,0.37996936689573096,0.31652206172840697
0.199677,-92.43580627441406,10.173372268676758,-3.128160372798005,6.7536816597985,6.037552973908764,71.14407684774238,-91.04761739594035,0.3792735196948972,0.33602410425266227
0.20182,-92.41458892822266,10.799720764160156,-3.12900388580114,3.445326923263556,1.2959396025507093,66.66061773314095,-79.55741333460234,0.37865400199121296,0.35596201778282843
0.204267,-92.42432403564453,11.36387825012207,-3.130145870934723,1.264818059040958,-2.9450631644409007,60.6193563933997,-91.80939255342997,0.3781875230870001,0.3768225770039284
0.206364,-92.43795776367188,11.83677864074707,-3.1315954896906235,-0.8400522230958614,-5.623485562081435,52.94979161590574,-91.60622979215778,0.3779564952023914,0.3991332088779947
0.240279,-92.47761535644531,12.203320503234863,-3.133305438405829,-3.786004592789333,-7.603835305789986,43.91145351364664,-84.32919038066285,0.37802907300452776,0.42333693563209296
0.243819,-92.53004455566406,12.451567649841309,-3.135293616978051,-4.558198459594294,-9.118019942890113,33.39529470142856,-91.85491762137002,0.378483202411537,0.44994258202165904
0.246655,-92.53605651855469,12.566694259643555,-3.137527719434014,-2.2477956190573325,-9.548356865320413,21.552096727821418,-91.16400708864809,0.3793914555198942,0.47943010557135374
0.248593,-92.49707794189453,12.539159774780273,-3.139941443114097,-0.2962168732886963,-7.511439921792639,8.7509152042485,-90.27345222730763,0.3808079709807232,0.5121682028921483
0.280307,-92.46681213378906,12.359837532043457,3.140602184929565,0.2113836826413165,-4.752766216499039,-5.247463157704723,-91.61618952234656,0.382819178314054,0.5487318617398534
0.284065,-92.4822769165039,12.018417358398438,3.1377756264546184,-2.8175830196679015,-4.453156980348669,-20.225930123098816,-91.50297524587675,0.3855169843062162,0.5897359150763223
0.287679,-92.55409240722656,11.507878303527832,3.1347388589261582,-5.865456539373361,-5.904153829889715,-36.345960328536165,-90.38214414804796,0.3890450829845541,0.6361263593689447
0.291007,-92.59786987304688,10.816104888916016,3.1314672680426368,-4.7784408975891175,-12.48616636886276,-53.721736180806,-82.00476092328093,0.39361997942943344,0.6893157049856687
0.320406,-92.47140502929688,9.93913745880127,3.128021579392718,4.289850572388248,-28.492907641631696,-71.90696799689779,-91.82935689277211,0.39951547598877274,0.7510900750594707
0.32436,-92.06389617919922,8.900421142578125,3.1248907786885725,20.49707326522269,-45.4792483055422,-88.108456745924,-90.62939259455943,0.4068612763333667,0.8223473975413333
0.32846600000000004,-91.4395523071289,7.796543121337891,3.123241249749665,35.523451873210306,-50.26475546071452,-96.15564219206045,-86.04261565105575,0.4152442751041571,0.9005831801832497
0.331763,-90.81758880615234,6.814889907836914,3.124139764096525,41.31702323289022,-38.14029200463354,-90.82471369581135,-88.82069022368684,0.42361105347142664,0.9792437663711546
0.359767,-90.39414978027344,6.1054606437683105,3.126880141098398,35.917656241157594,-18.811736040353093,-76.20459132456152,-89.3251485220438,0.43112725586082573,1.0530857262613207
0.361937,-90.22509002685547,5.653164386749268,3.1300280166705896,23.408265521569497,-11.217238456932158,-59.786250899576565,-87.37464992924717,0.4375925344801419,1.120796794284524
0.364206,-90.25161743164062,5.380909442901611,3.1330929120969935,8.725284919388026,-18.89018247051798,-43.95353430912309,-56.10197648169918,0.44291600925590613,1.1817399226105183
0.366286,-90.42133331298828,5.278689861297607,3.136432562026131,-5.958625869181036,-28.35268215042404,-26.73343725105807,-90.08044397188702,0.44660483060910894,1.2327467043544857
0.40037,-90.7940444946289,5.392096519470215,3.1402944344089896,-25.991284263770115,-24.009120677950104,-6.753489987614916,-89.14245365621233,0.4479128497481122,1.2690262400881664
0.403783,-91.48003387451172,5.669898509979248,-3.1402601402779142,-49.441434212877425,-12.108089785093167,6.984265857970368,-86.94635898524487,0.4475262579234747,1.2947404063800714
0.407181,-92.36302185058594,5.918888092041016,-3.139586328003813,-64.056744715857,-4.098776457243965,10.617511989311897,-90.87075693429519,0.4468795440117724,1.3187958871157333
0.40982,-93.17765808105469,6.025050640106201,-3.1404126247446587,-66.68623777271767,-6.826343346623211,6.29980705171469,-92.21296939647632,0.4471452628637423,1.3485437177524096
0.440369,-93.83451843261719,5.943650722503662,3.140532723957056,-65.37064088573567,-19.264685157804365,-5.698525008510957,-92.76852907117497,0.44944418873302566,1.3910832604545902
0.443948,-94.44953155517578,5.622053146362305,3.1372237102522473,-67.3330771776854,-30.631178616026933,-23.64294740635655,-93.3814660136406,0.4545529842130477,1.4514221803824958
0.44731299999999996,-94.97474670410156,5.06040620803833,3.133738898283076,-55.38852090434255,-36.95640165541689,-42.73828314633233,-93.97260536282457,0.46234168931785913,1.5289204641764218
0.450858,-95.08822631835938,4.311148166656494,3.1305376972684016,-27.193120935030976,-36.79385681354892,-60.23155874289388,-92.29764401130102,0.4721096617366305,1.619344230051167
0.479916,-94.89517974853516,3.447167158126831,3.128327782475834,-11.236048797906374,-30.784506117609965,-72.12657223909204,-93.7470178401447,0.48260489034549425,1.714951221141882
0.482078,-94.91302490234375,2.594057559967041,3.127628260751632,-18.96463324001841,-26.436520390101155,-75.94492119269597,-94.0422796727976,0.4925771376019036,1.8079316581448335
0.484422,-95.2013168334961,1.8379606008529663,3.1278462477144577,-22.22110863438229,-28.336976130427598,-74.98633146344136,-94.19530568244649,0.5016978345506811,1.8961882215409587
0.486421,-95.38562774658203,1.1940838098526,3.1288366444813236,-16.425307217938364,-34.485095779733705,-69.71784455658451,-94.44281287713247,0.5097952055399343,1.9785881085943435
0.520525,-95.52946472167969,0.7271460294723511,3.1310329830679233,-21.397990584673003,-46.06386810226569,-57.79982015307258,-94.16455532282913,0.5162593289642313,2.0512347713688728
0.523909,-95.84387969970703,0.5171155333518982,3.1341114841825077,-27.755696296208246,-60.773267876156766,-41.08323268778986,-94.06012120917552,0.5206402074629869,2.1111981730892175
0.527589,-96.12176513671875,0.5167928338050842,3.136736701786111,-22.814809167607308,-71.63957292108095,-26.743740591421034,-92.8238518403518,0.5233885153324034,2.161179089732525
0.529792,-96.2153549194336,0.5751441121101379,3.1382039978084983,-15.628051679521333,-76.56230882196259,-18.680828634720626,-95.25155190455749,0.5253792838967806,2.2065729278210457
0.56044,-96.24226379394531,0.5928043723106384,3.1387871343317277,-10.952586555840735,-72.34554127369348,-15.47044677197058,-82.73565124888981,0.5272132044235759,2.2511063443023094
0.56422,-96.28451538085938,0.49374690651893616,3.1378970737662324,-9.576171956941643,-62.357960556058934,-20.387484587537127,-94.61992714428928,0.5298256092297962,2.3006463503950108
0.567598,-96.3924789428711,0.12444613873958588,3.134877479861868,-12.24667090825814,-45.81897166957488,-37.08767106107536,-86.72287828056578,0.5344219830988901,2.3628161439884074
0.571096,-96.59619903564453,-0.612963080406189,3.130899104396304,-17.18143477226816,-23.471989478978426,-59.18628708288264,-93.64481674140085,0.5411251054570329,2.4385118274217246
0.600056,-96.88480377197266,-1.6378599405288696,3.127397995554119,-23.570076118101685,4.181531456114662,-78.80112188848771,-95.80913785884867,0.548950519173937,2.521680245029914
0.602276,-97.27364349365234,-2.765028715133667,3.125946857802555,-33.54845486337693,33.02922046757798,-87.20691275661734,-95.64624585541735,0.5562253624855524,2.6018810120019134
0.604446,-97.75910186767578,-3.767775297164917,3.126866559184028,-41.723863450802035,54.16469102395425,-82.48952649313215,-96.35757618873915,0.5617828157475403,2.671748190933471
0.606482,-98.19719696044922,-4.549291133880615,3.128794340269918,-40.37003799503547,65.92484243499051,-72.01088932511954,-94.99362698927796,0.5656076818054225,2.731078388487596
0.64056,-98.38018798828125,-5.1685590744018555,3.130545010066226,-24.85555016329664,66.25922117599765,-62.27555432372273,-97.22491997514649,0.5682101704411857,2.782968485605403
0.644293,-98.2062759399414,-5.69533634185791,3.131695701411247,-2.237587261012514,54.62135064167213,-55.69003960525276,-96.73345134052052,0.5700891524991671,2.8304761760076267
0.647802,-97.83586120605469,-6.161277770996094,3.132419828559512,12.953637322263127,33.2771426740711,-51.4204644494157,-88.63709323738526,0.5715381971578336,2.875400549984059
0.649958,-97.55783081054688,-6.571876049041748,3.1329861806941133,14.50596941965142,9.40282175580672,-48.10837594728228,-88.8963117642121,0.5726926196527038,2.918564804470845
0.680443,-97.52489471435547,-6.934598445892334,3.133514100878542,6.266939327654942,-9.836714645473657,-45.1420350360295,-96.57740078259363,0.5736174914941266,2.960359284169217
0.68411,-97.7083969116211,-7.273321628570557,3.133827678770992,-4.315134225148343,-21.931015132406216,-43.471367349949794,-95.74004118632344,0.5743802959470984,3.0011935758453516
0.687512,-97.98181915283203,-7.634349346160889,3.133700202479064,-10.800381766602525,-26.519394490395502,-44.30870414596375,-97.07942600991983,0.5750374458236762,3.041411948656763
0.690981,-98.22526550292969,-8.065330505371094,3.133112781781589,-12.570756554186076,-24.629930231990905,-47.72495644803445,-97.30739157301939,0.575591336024919,3.0810228117377765
0.720188,-98.40907287597656,-8.581635475158691,3.132381413720433,-12.625036921293812,-17.842574885810595,-51.93834988285357,-94.29038771228534,0.5759804987730612,3.119633463653522
0.722344,-98.58526611328125,-9.172833442687988,3.13151255361972,-14.978010623380172,-10.3682741176299,-56.93957148748782,-97.33412310135341,0.5761417092360754,3.156836300937225
0.72449,-98.80435943603516,-9.805383682250977,3.131063963047929,-17.505609210655308,-5.897663869517733,-59.605886094164035,-34.43130145006207,0.5760233740580614,3.1922928303086584
0.726513,-99.00949096679688,-10.4263916015625,3.130851222664709,-15.698694618559482,-3.8201662108099748,-60.93661185015762,-89.7614900553263,0.5756240968450324,3.2259767135949993
0.760682,-99.1255874633789,-11.03050708770752,3.130898208422022,-10.877019904184653,-2.542998315975988,-60.74117964743605,-97.9290304434966,0.57497670790706,3.258076577609453
0.764459,-99.16484069824219,-11.599909782409668,3.1312815449755136,-6.43280748344094,-0.6219341873763239,-58.58697896434904,-53.36006350253682,0.5741480032922697,3.2889965249807323
0.767617,-99.18385314941406,-12.11557674407959,3.1320214572144898,-5.079033254093147,3.3350552266609927,-54.39301058752943,-98.84386320987018,0.5732303244697223,3.319305361870517
0.769589,-99.2280502319336,-12.566651344299316,3.1330191133581553,-6.266846266327501,8.612416897127211,-48.74475833263071,-98.343435051398,0.5723180397742931,3.3495904315996112
0.800648,-99.30353546142578,-12.954428672790527,3.1340331989557626,-8.217059934757486,12.222387878211453,-43.01164780748375,-95.47965129584907,0.5714697324547777,3.3802201624990955
0.804397,-99.3913803100586,-13.29504108428955,3.134854163563613,-8.896746573217442,13.647099598505351,-38.37430453088193,-97.9792445190462,0.5706942552895155,3.4112541980328435
0.807739,-99.46533203125,-13.60707950592041,3.1354731736174473,-8.310882828291367,13.02629516710643,-34.87500737378764,-94.30737147700077,0.5699823013967136,3.44263863739147
0.811261,-99.52342987060547,-13.901412010192871,3.1358979894602115,-7.398044267418441,12.12011518690062,-32.47287765401834,-98.16045254909062,0.5693110981073287,3.474234386960359
0.840331,-99.58055877685547,-14.191530227661133,3.136112218421072,-7.250492544552302,10.785748086305773,-31.269186586397826,-98.37628597221605,0.5686386413556392,3.505780087846852
0.842465,-99.66293334960938,-14.492671012878418,3.136049374820737,-8.327697900254291,8.715773027195137,-31.653917481966303,-98.72833086883186,0.567886834423055,3.536784965138806
0.844693,-99.7950668334961,-14.811290740966797,3.1359043135381843,-10.988361379165969,5.677592613138984,-32.52534716722238,-98.76657043206683,0.5670292358717643,3.5670778966637546
0.846789,-99.9747314453125,-15.13635540008545,3.135803507315249,-13.420790671867087,4.214052974960855,-33.16135389216646,-38.99439090927647,0.566081838953128,3.596752723900219
0.880783,-100.15142822265625,-15.463436126708984,3.13575584493471,-13.519337494985677,3.6110527122940415,-33.49347184055833,-99.84149683244206,0.5650657176514288,3.625936216398785
0.884357,-100.29248809814453,-15.79114818572998,3.13572474258583,-12.51747339469716,3.804432443170027,-33.719376932261916,-97.97233135354688,0.5639873469145891,3.6546647393767646
0.886478,-100.4170150756836,-16.120527267456055,3.135710625857969,-12.200894126667068,4.086199517661033,-33.8424671863893,-87.49134613702168,0.5628515955125022,3.682964972970253
0.888346,-100.5434341430664,-16.447845458984375,3.1357730319863584,-12.050184295083445,5.319158372761877,-33.52555665418446,-96.2330834700814,0.5616897351900801,3.7110297980138833
0.920108,-100.655517578125,-16.770221710205078,3.1359203628041463,-11.693175429808756,8.547665850021845,-32.71322518072192,-12.948726403077824,0.5605376841026741,3.7390832544617725
0.924032,-100.73148345947266,-17.088388442993164,3.1361483331505426,-10.549053857034504,13.895796177695624,-31.422145257765674,-100.30608271997401,0.5594295576696969,3.7673403121483364
0.92736,-100.75155639648438,-17.411693572998047,3.1362718157641924,-8.6282953794002,20.904400134112862,-30.71556560322244,-73.69310309382327,0.5582997974779852,3.795391815282659
0.930659,-100.72516632080078,-17.754858016967773,3.1362924278914273,-7.460440606807446,27.65320589261762,-30.58856165070064,-98.2708137483083,0.5570824416046443,3.8228219535908243
0.959416,-100.69380950927734,-18.110994338989258,3.136290869140152,-7.681528707598882,32.03105320717773,-30.588032311039964,-99.70412231255327,0.555758284192474,3.8495045493140636
0.961591,-100.68863677978516,-18.461307525634766,3.1363933427529953,-9.000144538194034,33.83827345023891,-29.99527092882582,-99.54646643877702,0.5543848932751567,3.8757946025371766
0.963755,-100.71437072753906,-18.786781311035156,3.1366331857511867,-10.370987410277687,33.50879536996125,-28.618885358230703,-99.76772248963698,0.5530406982858939,3.902181806490144
0.965738,-100.75202178955078,-19.076902389526367,3.1370012946539068,-10.652622576740347,32.04282503821224,-26.504566149707404,-43.03159325183178,0.5517979383194698,3.92912188722618
1.000066,-100.78160858154297,-19.335098266601562,3.137334910060597,-10.23508115994642,30.248889513086734,-24.585896002411832,-100.3069504266083,0.5506222353588502,3.9564052146442172
1.003528,-100.81188201904297,-19.58269500732422,3.1374880670794694,-10.51119070337054,28.72841768685561,-23.708616260131638,-99.99310871353619,0.5493852137187738,3.9832293938407566
1.006896,-100.85645294189453,-19.832109451293945,3.1375987132056222,-10.959955476181532,27.465143464010488,-23.07970268664062,-99.79324492045384,0.5480625089762237,4.009437485864824
1.009724,-100.90101623535156,-20.075590133666992,3.137719592399983,-10.660491808437849,26.570767758237753,-22.391062523952424,-95.7367282159324,0.5466719728354845,4.035136272654384
1.040303,-100.92426300048828,-20.311098098754883,3.137849209237981,-9.488982884639139,26.464472939279432,-21.646696555373385,-100.10368895805033,0.5452328372677302,4.0604423302756985
1.043773,-100.91398620605469,-20.53946876525879,3.137997107909357,-7.618918071024667,27.008436034968415,-20.789338767354828,-96.88024310260501,0.5437729352869219,4.085527485121085
1.047294,-100.87429809570312,-20.748998641967773,3.1383416659446026,-6.1132212246287505,27.75458809801541,-18.789706972732507,-99.94593381952708,0.5424532184937578,4.111401721131005
1.050595,-100.83870697021484,-20.938905715942383,3.1385108092339467,-6.750905614787713,28.580018166758745,-17.805819930339464,-96.43305738021577,0.5411429156717628,4.137252186614613
1.079516,-100.83496856689453,-21.12608528137207,3.1387404107506978,-8.027832958896868,28.852535884453083,-16.478644165166994,-99.2742776353162,0.5399053208731778,4.163477161328233
1.081708,-100.8432846069336,-21.29698371887207,3.138959677153447,-8.744597279266237,29.323617446603446,-15.213095489328255,-99.27346352965398,0.5387471783221538,4.190123588861804
1.083984,-100.83336639404297,-21.46944236755371,3.138985442059083,-8.1321214097865,30.634078031329604,-15.06274595022335,-98.97719931566411,0.537532593006472,4.2163426078031785
