Time [Sec],Roll Angle [Deg],Pitch Angle [Deg],Phase Angle,Angular Velocity X [deg/s],Angular Velocity Y [deg/s],Angular Velocity Z [deg/s],EKF Roll Angle [Deg],Step Frequency [Hz],Phase Variable
0.0,-86.26206970214844,12.189783096313477,-3.1121774475778063,21.468414957657714,-54.99907034805759,145.42520493975826,-85.40798980410737,0.4,0.025132741228718346
0.002502,-85.52827453613281,14.917278289794922,-3.113825427006823,19.18856952969374,-60.93670064261683,136.10575332673437,-84.31922626258455,0.3994961821251806,0.04709990138887725
0.039492,-85.59028625488281,14.661513328552246,-3.1148963173788236,15.869963319544844,-56.82310651685535,130.94893318261805,-83.28875032246889,0.39865598216740755,0.0669218547771375
0.042481,-85.33919525146484,15.858442306518555,-3.115208114961118,12.054080918004937,-53.68963087661235,129.03914398879078,-83.81102849682141,0.39756394463035744,0.08510867466719055
0.044798,-85.15982055664062,17.042327880859375,-3.1161467784852683,5.759184772303486,-46.56586310059953,124.18481926263601,-83.6239936412669,0.39633385317010106,0.10235946143327863
0.046608,-85.06657409667969,18.121417999267578,-3.1177911869887356,1.100994477694321,-42.61493334501648,116.02920456342561,-83.2399471889811,0.39508362724443746,0.11940645069625692
0.080595,-85.0617446899414,19.041248321533203,-3.1205603651103306,-6.135113261579111,-29.03870635066012,102.51973925311154,-68.63963262028474,0.39397241505322556,0.13724833500137001
0.083855,-85.20620727539062,19.765939712524414,-3.12392367576687,-10.569716886821086,-15.781008643341892,86.26815106652327,-83.80927908674619,0.39312122365375446,0.15665415860358028
0.08641,-85.45053100585938,20.320131301879883,-3.1271916298731544,-16.560505689916887,1.7351465928353282,70.51163548154506,-82.22890736450475,0.3925819216925399,0.17796615940876132
0.089079,-85.7940673828125,20.73531723022461,-3.1303724772599586,-19.714234548596263,9.99456543983453,55.1566393971152,-53.27505059495758,0.3924034045862601,0.20151115297193295
0.119157,-86.1724624633789,21.0235538482666,-3.1330799786610353,-24.035780613827956,22.406377515618885,42.03080190681865,-60.13875170528684,0.3925716742722056,0.22722385565214553
0.121284,-86.6433334350586,21.22860336303711,-3.135362825901889,-27.17924199063751,30.06355232995844,30.927117052385245,-86.36193174940682,0.39305760127645056,0.25494303082359976
0.123366,-87.1334228515625,21.345964431762695,-3.137472604579669,-30.178664923135248,33.907548643895765,20.568955883595198,-86.35364864810919,0.39385911838761206,0.2846756488120571
0.125318,-87.65320587158203,21.365177154541016,-3.1395103438520646,-33.34206362213207,36.79367581353592,10.457705199527462,-82.59684543493795,0.3949836112586151,0.3164879441546891
0.159494,-88.2069091796875,21.288211822509766,-3.1413631283087406,-38.18961963081937,33.28444414629384,1.1599940786317142,-1.1124278085511872,0.3964034904978676,0.3502268607570983
0.16228,-88.91153717041016,21.10751724243164,3.1397398078750105,-52.615959290032194,37.06117675728488,-9.438880885756156,-88.44838369383537,0.3981959720880078,0.3863961206197658
0.16493,-89.8807601928711,20.750469207763672,3.1366754815943727,-67.19288071478171,36.3664748017083,-25.322598498742114,-89.19645834256401,0.40069361832670713,0.4271086855813087
0.167575,-90.83659362792969,20.104101181030273,3.132329924060451,-68.14638195310467,36.30338092925031,-48.20974961494361,-89.86767721076893,0.40441545355987996,0.4756699885876331
0.199744,-91.65059661865234,19.18602180480957,3.1286571598911745,-67.42130273119444,39.18038296615932,-67.93055480552142,-90.20240399246283,0.4092761373065439,0.5316207376455564
0.203126,-92.46144104003906,18.08348274230957,3.124796307448038,-69.05203771629166,39.36352424346946,-88.98953748847731,-23.923348900679482,0.41557224535665227,0.5968959293634494
0.205876,-93.19844818115234,16.72707748413086,3.1204191224057922,-65.2265238942484,29.153733566472305,-113.08096706856794,-92.72430943069301,0.423906499366013,0.6753727659623328
0.208476,-93.30772399902344,15.166049003601074,3.116974640583034,-16.655259196725183,14.578825339980654,-131.63790802457558,-92.09625881426147,0.43435062047436174,0.7676299451410588
0.239283,-92.18894958496094,13.61856746673584,3.11560285557891,55.22994781747695,-8.219977279306727,-137.310011300056,-90.36124073417764,0.44635384410940043,0.8703394778908128
0.241387,-90.58499145507812,12.182268142700195,3.1148259877223783,77.06963478294362,-21.547430001071007,-138.95586832397564,-89.48548262244258,0.4602605821926944,0.9857633294376733
0.243551,-89.60513305664062,10.771142959594727,3.1144227659925687,72.16125593969737,-2.5079746000160434,-139.52442693086584,-78.35123867819713,0.47665618041452557,1.1176989365625734
0.245682,-89.25498962402344,9.590150833129883,3.118566651118316,56.04282570607309,67.12252293614141,-117.77427691522885,-88.65846164067246,0.4925686333086976,1.247629017881991
0.279396,-89.72991943359375,9.233917236328125,3.1304551741443696,-2.449618104077689,89.1687958032443,-57.26177200120483,-88.8665522020599,0.5008461633235544,1.3305872728469044
0.282199,-91.31912994384766,9.940654754638672,-3.139379344713615,-94.29565190747175,6.553951987428517,11.580495237750117,-89.58945122815891,0.4986788410376649,1.3484386778497994
0.284271,-92.95415496826172,11.176349639892578,-3.131211919016005,-81.6957833794958,21.59617193853551,55.288540595271904,-91.89387626025017,0.4899405443545241,1.3484386778497994
0.286204,-93.71531677246094,12.428709030151367,-3.1260284036434975,-77.78745351376612,31.560661494133534,83.5788665336683,-92.8413714609438,0.47742223485787905,1.3484386778497994
0.319566,-94.56297302246094,13.692692756652832,-3.1234668040990217,-85.16446079854092,-2.5435105801637388,98.21768313267648,-93.20952496780292,0.4635077271317752,1.3484386778497994
0.32271,-95.09808349609375,14.81656551361084,-3.1244222304172404,-57.78268320844502,-25.10820227579,93.5660032890068,-93.95573006045386,0.4512893458389749,1.3484386778497994
0.325447,-94.97466278076172,15.469545364379883,-3.130148492368576,-38.08530556672035,-69.77874935341352,62.27780828614883,-94.05320837381882,0.44478332377321483,1.3484386778497994
0.327963,-94.68972778320312,15.239139556884766,3.140394845292211,-40.53252478029548,-138.1668585314341,-6.49849853533083,-89.51755339823579,0.4494093222376189,1.405451243880482
0.359382,-94.08269500732422,14.008356094360352,3.1294602816065695,25.437871601364417,-75.24730616143837,-65.40326186921165,-73.61670056024491,0.46304021475522206,1.5193338879747598
0.361466,-93.7380599975586,12.619857788085938,3.1287573247881504,3.0185081885860474,83.33033644033905,-68.93970842520164,-92.65320700548382,0.47575816327494147,1.6283367899911605
0.363581,-94.70299530029297,11.778081893920898,3.131486573739886,0.7339045200089577,179.0489831293021,-54.838284279900904,-93.90282642798286,0.48432674182945945,1.7120675238809206
0.365663,-95.88418579101562,11.755165100097656,-3.1401213333442732,-58.35757340069583,170.61953248588753,8.08308492041404,-90.27389867051527,0.4816982675328404,1.7259834794814746
0.399655,-96.61017608642578,12.708441734313965,-3.1356692492390543,-14.552151743724462,-17.196893197907194,32.7885314314159,-95.5960903052227,0.4753016961525082,1.7259834794814746
0.402384,-95.5841064453125,13.470083236694336,-3.137764587821749,-8.418776765289119,-112.96323509784443,20.964756808260972,-94.2873493126121,0.4712120824956008,1.7301517653777827
0.404466,-95.08393859863281,13.513734817504883,3.140909242316435,-7.446049398226229,-120.92860853810248,-3.7231625835569844,-94.00016087073253,0.4712707417835567,1.7601274608870154
0.406358,-94.84473419189453,13.037714958190918,3.1357503763759773,-0.5791001501004699,-90.80249509044131,-31.74848145102513,-84.11009010259862,0.4755839628149466,1.8168390419028433
0.4399,-94.66153717041016,12.266946792602539,3.1315900331834396,-2.7225960057673575,-92.15368409318825,-54.25308733219255,-92.2485293770679,0.48290241132798434,1.8927040317462036
0.442742,-94.64417266845703,11.413155555725098,3.1287525392783193,-13.862431557373759,-79.26164056308664,-69.63206421079832,-93.1327579295675,0.4919725968683534,1.9800353416234189
0.445516,-94.9631576538086,10.57456111907959,3.1282947301741473,-29.348103674777942,-53.669871139343506,-72.35810882176631,-93.74486774196392,0.5009500806672141,2.0673540858456465
0.448325,-95.44625854492188,9.887848854064941,3.1294323772081887,-33.18861317714398,-25.406174400973683,-66.5037897596083,-94.50534937951815,0.5087798670588886,2.1480257065249564
0.479566,-95.84600830078125,9.220848083496094,3.128522551777961,-34.51982387656864,-16.67008753741328,-71.77948934622867,-93.15438057873673,0.5170893204451864,2.232203123805369
0.481606,-96.17962646484375,8.414790153503418,3.127392999722915,-36.935142691625224,-34.893370337371216,-78.25510290585855,-54.113425443177654,0.5258219439164636,2.3195614955004356
0.483641,-96.4629898071289,7.61345911026001,3.1271503737749136,-35.37908557981833,-38.72230266909408,-79.8269070187969,-96.06704210243537,0.5340768488879573,2.4044669602515736
0.485732,-96.72450256347656,6.84934139251709,3.1272996737805183,-33.448283309009526,-33.945128344709175,-79.21574169186417,-1.7928830951512555,0.5414292823343989,2.484220700152648
0.519633,-96.96989440917969,6.14451265335083,3.128189799622232,-30.15219794010145,-32.06180271882113,-74.47025603013354,-96.30183650450834,0.5474346633709222,2.555972627161749
0.521776,-97.1201171875,5.535406589508057,3.1292163370646846,-21.516260432793654,-28.08750859363476,-68.87243106187701,-96.20507717990183,0.5521760996305616,2.620160284138573
0.523807,-97.16404724121094,4.922246932983398,3.129259315776805,-14.764963362789134,-18.72308360002091,-68.66428104692088,-96.26811585120201,0.556288185184309,2.6806915272334897
0.525853,-97.21524810791016,4.241792678833008,3.129459731353905,-11.66310893708236,-4.283834029503113,-67.58397734665664,-94.89277690214229,0.5597791265776635,2.737578376421516
0.560505,-97.32585144042969,3.569807529449463,3.129825711877129,-12.733595094188349,6.335217313692975,-65.61973788476604,-96.35338665579359,0.5626801281210237,2.790977866528648
0.564536,-97.4724349975586,2.9108030796051025,3.129902808903069,-12.466788268413788,8.959220606008255,-65.28794095526516,-96.0948668450035,0.5651708719381565,2.8419819066209246
0.568419,-97.60890197753906,2.216994047164917,3.129516657842123,-13.285249836656416,13.475162392754974,-67.53923277740388,-88.84459044977433,0.5674116385902817,2.891571791912452
0.5726,-97.77774810791016,1.451816439628601,3.128989095192089,-15.171625995782524,22.75875209754172,-70.61205292272258,-96.95724857197607,0.5694121084563867,2.9397926394897507
0.599709,-97.9735336303711,0.6625891923904419,3.1288766378003277,-16.825079897606503,23.593411459401032,-71.38482052541782,-97.08734674355135,0.5710577987072112,2.9859100342297324
0.603424,-98.15875244140625,-0.07659205794334412,3.1290510362963566,-16.55297540635695,17.733629953454304,-70.53878548349586,-97.22450342377121,0.5723103589453529,3.029660722018256
0.606999,-98.31475067138672,-0.7644147276878357,3.1294991533391596,-15.75636873591107,16.168305982491002,-68.12625338562063,-47.493105701024916,0.5731698717858346,3.0710205208536245
0.610825,-98.45166778564453,-1.4180971384048462,3.1300394621969136,-14.436354424083358,19.50341392967465,-65.17289324888546,-98.140707056195,0.5736795465740984,3.1102362271639112
0.639675,-98.57847595214844,-2.063523530960083,3.1303447135262017,-14.233475607619177,23.878051055324853,-63.532514036680176,-96.48466987884986,0.5738981152443139,3.1476548836018576
0.641803,-98.72444915771484,-2.7042782306671143,3.1306730174536606,-15.226306782730353,22.605696095978196,-61.76931436281973,-97.71682943475136,0.5738576188365947,3.183459519223094
0.643731,-98.88528442382812,-3.314425230026245,3.130980444316162,-15.373683481999011,19.297789377164122,-60.12795160337396,-71.03724796868272,0.5735900254555664,3.21783471801399
0.645738,-99.05037689208984,-3.913560152053833,3.131075893833033,-16.457813795745746,16.260084941915757,-59.686584779207735,-97.3270036970401,0.5731114636669109,3.250867549817804
0.68004,-99.23853302001953,-4.529150485992432,3.130863046040793,-17.43543072448072,10.790826331953678,-61.010343742247905,-98.35656022258696,0.5724105177264366,3.28247303186237
0.682495,-99.43860626220703,-5.1582441329956055,3.1306059379056235,-17.710089706479856,1.3654155397361385,-62.598369554465044,-94.2468249954268,0.5714879533303545,3.312642002350518
0.684922,-99.64612579345703,-5.775534629821777,3.1304522771597605,-17.686704846309027,-8.88924190286689,-63.606409853310545,-83.14292086435046,0.5703678614442136,3.3415119045847805
0.687616,-99.83770751953125,-6.359489440917969,3.1307009152043266,-15.291767315735756,-15.869903555389607,-62.306249193852764,-76.13770656199998,0.5691372290000535,3.3696168825602326
0.719788,-99.9760971069336,-6.909137725830078,3.1311451430512744,-12.957425515931545,-10.76434739608883,-59.84769528135,0.10873064065602611,0.567862571974588,3.397367923016355
0.722221,-100.06682586669922,-7.449982643127441,3.1320072912244634,-11.496109104328255,7.291800674878893,-54.95846487344186,-99.93376268811221,0.5666678132579603,3.425540890289694
0.725422,-100.12311553955078,-7.956596851348877,3.1332192121250504,-11.64355922813049,27.80986311142103,-48.036474545889554,-99.29263490870021,0.56567452203006,3.4549046462239406
0.728499,-100.14713287353516,-8.398756980895996,3.1346490460545655,-10.218289139871944,45.79321161112018,-39.84311622132566,-1.6775501954420515,0.5649792390516853,3.486078432884536
0.759847,-100.09835815429688,-8.760575294494629,3.1362172375088795,-7.009308319675396,60.34913361926648,-30.82945559253782,-99.79991721529895,0.5646621157125242,3.519584580716065
0.761934,-99.99378204345703,-9.035687446594238,3.1375213169131593,-3.591098741520672,61.94026716755597,-23.325719270355307,-98.85064397449973,0.564672424624951,3.5551281206128174
0.763917,-99.84823608398438,-9.24238109588623,3.1383013737556604,3.1617609476998987,53.49072893779241,-18.829093258581388,-72.53394977545659,0.5648473637200014,3.591706710182219
0.765979,-99.62969970703125,-9.394566535949707,3.139069064386491,10.364424452258952,41.49205024546639,-14.405589544514328,-98.16346854301128,0.565195478793015,3.629384388259432
0.799927,-99.37910461425781,-9.454751014709473,3.140194074209543,15.518246143329623,28.931216248597046,-7.9635207514456745,-98.1543606572864,0.565879929419842,3.669197197661767
0.802335,-99.10824584960938,-9.421259880065918,3.1413100133269998,20.348598613044953,23.767796434195212,-1.6049683098967629,-80.51036977655396,0.56691539335577,3.7112584940316897
0.80495,-98.77261352539062,-9.34676456451416,-3.1410049252895518,26.190860683770598,21.73940271297797,3.3261040503102794,-96.42775428883176,0.5682020496747212,3.7549631388097833
0.8073620000000001,-98.356689453125,-9.244329452514648,-3.1402503639444252,32.93756957420016,20.03564105282226,7.564374741633884,-95.1361141856451,0.5696964251650829,3.8000537646344883
0.840194,-97.82847595214844,-9.092276573181152,-3.1392813107040864,43.23818810678014,19.49977173129974,12.955466959187044,-49.08718551288495,0.5715335077344831,3.847391576924119
0.843252,-97.08943176269531,-8.818644523620605,-3.13716386453454,59.497395369387554,25.364052624362213,24.636693826816508,-96.72187215407543,0.5743980829946685,3.901300743493808
0.846051,-96.09456634521484,-8.309478759765625,-3.1334510292862254,74.66410362896767,47.15003551993238,44.82725210775112,-70.00820700581498,0.5793066202981971,3.968232488914524
0.848522,-94.9989013671875,-7.5056657791137695,-3.1291839618909667,82.60377506737895,56.0702011042665,67.54442372117309,-94.00558325372401,0.5867663072047489,4.0515019925320255
0.879901,-93.84272766113281,-6.465949535369873,-3.1257301888672377,99.70216327707622,50.76692121377761,85.29633126084636,-93.0746806555626,0.5965433828565304,4.149800785016251
0.882062,-92.55565643310547,-5.281635284423828,-3.122454944123132,107.34332812800126,46.13768195662601,101.50059306667559,-90.58814738205206,0.608947003681821,4.265216959324137
0.884142,-91.40347290039062,-3.9698524475097656,-3.1197179576262326,105.20140129485277,35.95331324371964,114.5767853269899,-90.46299979283337,0.6242112259828091,4.399386165275075
0.886117,-90.46163177490234,-2.541093111038208,-3.116831194918676,96.0589472039806,24.26927575324672,128.3666025819763,-89.5777393732621,0.6430759026014744,4.557136772266884
0.920132,-89.66590118408203,-0.959734320640564,-3.113834006776054,89.5294024706643,9.229574007509347,142.64606926837178,-74.52134389273408,0.6657270633715429,4.739863863434209
0.923199,-88.99259185791016,0.7749496102333069,-3.1107180366314005,74.83376552795079,5.381106054099778,157.47662293776054,-65.11516442541935,0.6910311266794218,4.940682847253895
0.925714,-88.56099700927734,2.553765058517456,-3.1097333781572365,58.003127563907185,-1.5445342625119611,161.71414060072814,-87.43183668117399,0.715183937036454,5.135858196635854
0.928291,-88.19818878173828,4.015479564666748,-3.113827718482031,53.75497871149645,10.643608434583223,140.34294314062183,-87.39466439125952,0.7338264401699427,5.297928830464422
0.96015,-87.74405670166016,5.04802942276001,-3.1172701689593896,51.942669977503606,24.912102422077055,122.30210493867868,-86.93343810142939,0.7488196160893992,5.438241408178468
0.963533,-87.31869506835938,6.183638572692871,-3.1158295059578003,47.66648661364455,28.179407081369988,128.9213642067431,-86.46073327674556,0.7638618259283751,5.579804124121641
0.966494,-87.06078338623047,7.7262067794799805,-3.112497178637803,33.47026285775863,28.800459107126322,145.17546590294592,-86.23883075203051,0.7790628900524703,5.723310080893536
0.969337,-86.9278793334961,9.383484840393066,-3.1117824228542545,27.239055664746605,1.8732865284686016,148.51684908642952,-85.0064481165161,0.7915544084158129,5.85074657057992
1.000036,-86.74969482421875,10.842808723449707,-3.1126127962985812,15.910088973371376,-21.260951376713162,144.08157012623337,-85.124453327694,0.8002836640469612,5.95532893159208
1.002132,-86.64236450195312,12.244280815124512,-3.1119021573996846,7.920069649266992,-46.47828983015621,147.4341274991991,-2.4175641262909653,0.8063590422247889,6.043784964089724
1.004133,-86.4006118774414,13.642346382141113,-3.1130837383096304,9.647342528093176,-71.70608530321854,141.16850810560126,-83.64500859402044,0.8100358622508501,6.117552138518797
1.006113,-86.00013732910156,14.84730339050293,-3.114560994126721,9.627640847432275,-86.6357450174642,133.2294650445936,-80.39946588968283,0.8120919610985388,6.181367042868534
1.039545,-85.59262084960938,16.017126083374023,-3.114632866032656,8.96021952117437,-96.284302465456,132.24542603049153,-28.82385671003153,0.8132275375537796,6.239527322947813
1.042995,-85.17678833007812,17.18584632873535,-3.115810055621526,8.186896965609064,-97.74860623104752,125.85393991086872,-84.55028895202229,0.8136424841380594,0.010045795203355468
1.046198,-84.8099365234375,18.230342864990234,-3.1172554077855366,6.132708608104443,-89.20022150361552,118.2841505367703,-84.01639317955829,0.8135606298086648,0.06065415429990836
1.049168,-84.51176452636719,19.122968673706055,-3.120320146009751,5.516637497800341,-78.70010339066322,103.02058336457023,-80.97399078894263,0.8131969639298311,0.1094866961504336
1.079134,-84.31303405761719,19.81016731262207,-3.1232890487816265,1.564551839421976,-58.24268278866704,88.43058212756014,-26.407169437920974,0.812714029415994,0.15754700126483157
1.081298,-84.36272430419922,20.383909225463867,-3.126507373143039,-7.300764444390889,-32.0892327585279,72.92216633399346,-84.13977792184855,0.8122288458318382,0.20556283138323175
1.083336,-84.6440658569336,20.848020553588867,-3.1291961250887046,-14.759109890670434,-9.73208810022011,60.123115829441595,-83.91682590589726,0.8117082719922053,0.2533258129847288
1.085603,-85.08888244628906,21.248876571655273,-3.1315030439700102,-22.85830551978924,17.814752110226546,49.19087555336468,-76.69856611366038,0.8110723445650775,0.30033129800114183
