Time [Sec],Roll Angle [Deg],Pitch Angle [Deg],Phase Angle,Angular Velocity X [deg/s],Angular Velocity Y [deg/s],Angular Velocity Z [deg/s],EKF Roll Angle [Deg],Step Frequency [Hz],Phase Variable
0.0,-107.32109832763672,2.6011910438537598,3.1404059239020135,9.688115342343568,34.06302765506735,-7.2972588497993796,-106.25851319567992,0.4,0.025132741228718346
0.003624,-107.14342498779297,2.2859485149383545,3.1408389884549637,10.3997177472477,34.38055290429749,-4.626650188569339,-105.68625871472887,0.4000164700122354,0.050368966596323006
0.03955,-107.11407470703125,2.3749051094055176,3.1412407235391715,10.596921530285247,36.73823516804293,-2.159859708257769,-106.11030192620977,0.4000274508728747,0.07557173744865962
0.043227,-107.04592895507812,2.2768571376800537,-3.141572832719129,8.150640613947344,39.64895443378971,0.12156694851970005,0.38813441214574795,0.4000155226449977,0.10063125620045145
0.047026,-107.02262115478516,2.202942132949829,-3.1410536142748544,6.3361982996125175,40.63607727830205,3.3053594851404813,-106.32541218017286,0.39995019017233874,0.12535447671342692
0.05051699999999999,-106.99528503417969,2.183168411254883,-3.1404940309507396,5.9794259296378405,38.320889036477844,6.734975052322304,-106.01316974999514,0.3998068346393654,0.1495833589198911
0.079552,-106.95600891113281,2.2292187213897705,-3.139718765955515,5.566774074515996,35.60896925671345,11.483436542096943,-105.19396185976109,0.3995359153827003,0.17300172731814115
0.082879,-106.91830444335938,2.348418951034546,-3.1387925129905025,5.53900594044531,33.921738361896466,17.153615411778702,-101.82243727183561,0.3990901199869957,0.19530429417007292
0.086168,-106.85487365722656,2.560239791870117,-3.1374667809341608,7.867721371920721,30.871608105000554,25.26011080557296,-105.33284354786574,0.39837265513870374,0.21587190135829548
0.09122,-106.73033142089844,2.885288715362549,-3.136179026574529,11.746835103475668,27.426638272564542,33.105722001376705,-105.77299084363116,0.3973684685992602,0.2345929033834928
0.120808,-106.55121612548828,3.292847156524658,-3.134838828284765,15.889986019096737,25.727194999511575,41.23229132114163,-105.29796959714118,0.39605328354299085,0.251296749196112
0.127965,-106.3283462524414,3.7974600791931152,-3.1332255994039944,20.432995845524214,24.07629729598447,50.974668247572716,-87.20417736712449,0.39435719551066534,0.26552467551189646
0.136149,-106.04852294921875,4.425623893737793,-3.131451214869756,26.248895093600904,22.566929649796496,61.6228409560688,-105.13714141896784,0.3922448387118531,0.2770305396762107
0.150119,-105.71222686767578,5.167922019958496,-3.1296532733492013,31.330675364400864,22.328086472257613,72.31864398874197,-99.32782643431453,0.38972818470730286,0.28586340628567947
0.15944399999999997,-105.37124633789062,5.993351936340332,-3.1280761472171905,33.61272694346675,24.471814767799692,81.60854820341639,-104.54956774000054,0.38689446148241835,0.2925459421939384
0.162925,-105.0860366821289,6.872323989868164,-3.1266897706646812,32.179698614084714,27.169689971083248,89.73669871197417,-102.5627117387762,0.3838226827163603,0.2975546829422908
0.167651,-104.8691177368164,7.806468486785889,-3.125499912308134,30.17392477185126,27.659013260959423,96.70251494833587,-103.25977019626278,0.38059032989205704,0.30136150157506547
0.170446,-104.65406036376953,8.777586936950684,-3.1249057136116325,30.857787217215034,24.626151429832593,100.06811798261633,-100.81689975578045,0.37738527448633735,0.3051367402294753
0.19973,-104.37928771972656,9.74010181427002,-3.124805939594329,33.62908524652893,20.217026971515704,100.40225083681335,-103.47976688063699,0.3743494216647599,0.309773730504165
0.203532,-104.0307388305664,10.657591819763184,-3.1253831667167145,37.950822557057386,14.20663894059655,96.62547041449812,-78.71758063321131,0.3716635737038527,0.3164191179184268
0.207952,-103.70681762695312,11.584200859069824,-3.1246783828757465,33.66728649455681,12.107614233172205,100.51355559952789,-103.10806638654441,0.3689141835067142,0.32249650088316145
0.212302,-103.51068878173828,12.590496063232422,-3.124648690235941,29.73388300438402,5.67875289152424,100.49961518343189,-102.31567350464599,0.366302666823588,0.329267419404484
0.239314,-103.35894012451172,13.56971549987793,-3.124862227046531,22.95660218722948,-0.0026040442222454076,99.08735062912669,-100.07633408303516,0.3638870798576129,0.3371053142133215
0.241227,-103.30343627929688,14.529651641845703,-3.1249341855239883,16.393719300574347,-0.3888348520838774,98.60811040601274,-99.98908691257613,0.36159996523209476,0.34559864873876844
0.243145,-103.31255340576172,15.486884117126465,-3.1248039305667707,12.048425521372167,2.5030504605112873,99.38805653752567,-99.96478402249757,0.35936076589979765,0.3542493402804625
0.245242,-103.3536605834961,16.450593948364258,-3.124614864024872,9.130875212681724,6.4750504959101765,100.54752213027035,-102.46672186234873,0.3571418022192513,0.36288648312847255
0.279963,-103.43394470214844,17.412525177001953,-3.1245413952965393,5.6897827932601635,9.70348924439162,101.06115235585531,-99.1298243448834,0.3549747234602695,0.3717102069533734
0.282549,-103.56795501708984,18.36362648010254,-3.1245919937213302,1.7954134073071706,11.279937885965584,100.89175000406065,-102.59507791142389,0.35289130401922447,0.3809234162013641
0.285762,-103.73939514160156,19.306148529052734,-3.1246334165567373,-0.7422165400637458,12.880507340593446,100.8124788285535,-11.084668717548448,0.35087545091745737,0.39043025217535915
0.288443,-103.93888092041016,20.22772216796875,-3.124930605970985,-3.507346748474564,15.023117192658937,99.23599603603368,-102.94646543721964,0.3490079079251927,0.4007422882643814
0.318359,-104.19036865234375,21.112245559692383,-3.125174095499502,-6.582720744212611,18.12200817003957,98.02215530730652,-103.32370249054215,0.34724885899968067,0.4116186714926444
0.320496,-104.49467468261719,21.984363555908203,-3.125263661527155,-8.947363397609113,21.630515837229627,97.77206110065734,-32.68418934204583,0.3455220920514608,0.42258736406268255
0.322592,-104.83245086669922,22.845155715942383,-3.1254853898947808,-10.749638583711208,24.343437947254717,96.75595434840206,-100.61527461334269,0.3438685136594,0.43390741792625404
0.324801,-105.18196105957031,23.66770362854004,-3.126001229263485,-11.684248372563548,25.357941312602346,93.96905958211843,0.7762570492164957,0.3423933296481337,0.44624445934754364
0.359056,-105.48771667480469,24.448667526245117,-3.126672360628874,-10.215642441568564,21.322516994344365,90.18495719701295,-2.3305959845030766,0.34114113682937397,0.45988990720817136
0.362773,-105.68355560302734,25.226186752319336,-3.1272600192241535,-7.956459189617528,11.15687239127394,86.79322185896801,-105.61803220241497,0.3400547532910399,0.47449848790815763
0.366734,-105.77901458740234,26.022241592407227,-3.1279494821836398,-7.867977504014597,-3.1093855630403597,82.69217820580643,-105.05519041602945,0.3391596118628603,0.4902404187339201
0.370516,-105.82176971435547,26.837209701538086,-3.1284394570781746,-10.190773722800547,-19.075347191369733,79.75428161735216,-104.60266004342982,0.33833811463599783,0.5063888263286639
0.399087,-105.82933807373047,27.672143936157227,-3.1290520188402127,-12.877604510196191,-33.76613640731982,76.04505859611753,-104.80252014550632,0.33762922757241765,0.5231931682537245
0.40285,-105.77532958984375,28.507143020629883,-3.129544194246774,-14.41636758302461,-48.53568624213662,73.02297992614285,-103.16500520327997,0.33695291165212177,0.5401576200198837
0.406205,-105.62913513183594,29.362625122070312,-3.1299262007272985,-15.004819115872472,-62.504092453351355,70.60978529991814,-101.30547454627104,0.3362425376651224,0.5568655844592064
0.408944,-105.40685272216797,30.215152740478516,-3.1304486983577804,-15.260631898404252,-72.68909978894511,67.30523049643925,-102.89693668460859,0.33556559335783326,0.5737389596569311
0.438558,-105.14077758789062,31.03868865966797,-3.1307745690646804,-13.976180674037504,-77.67517203400028,65.17201215448253,-100.6244956387191,0.3348061831316187,0.5900516525392673
0.440608,-104.86225128173828,31.82147979736328,-3.131331858427626,-13.126613570540991,-77.34616182168077,61.65070812788245,-87.09448167171792,0.33409052126292216,0.6065915093070188
0.442828,-104.60395812988281,32.53604507446289,-3.131803883498324,-11.437476199171927,-73.69832171051704,58.66954912122533,-103.47409571159208,0.33335634221597804,0.6229700528510923
0.444934,-104.38048553466797,33.199241638183594,-3.132257530893246,-10.870865049968826,-66.56244742420036,55.83089518141135,-98.30046355899523,0.33258831163462105,0.6390897711015112
0.478762,-104.2811508178711,33.79294967651367,-3.1327517070329227,-13.162684653321476,-53.796642865433526,52.824881116364544,-102.98749638579693,0.33180477880652864,0.6550638290783714
0.481386,-104.3313980102539,34.30453872680664,-3.1333088905343254,-13.563078880204085,-39.827447767369655,49.51938716187478,-102.63155931795129,0.33103620383862814,0.6710826392430843
0.483995,-104.45989990234375,34.73072052001953,-3.1340991002681764,-14.457705595428818,-26.244284715911146,44.850590864145055,-103.49303457879188,0.33041550734904424,0.6879823063005466
0.486284,-104.6836166381836,35.05729293823242,-3.13505076017943,-16.146092499762826,-13.29461231846121,39.23837468730732,-103.56460597846547,0.33001456879226887,0.7062237536619317
0.518953,-104.99166107177734,35.29410934448242,-3.1359692690905066,-17.471034793076704,-1.9779621657068087,33.82827063819943,-103.94373969007424,0.3297792233246431,0.7254804613755418
0.521572,-105.34117889404297,35.46609115600586,-3.1368115564376255,-18.193711495946363,6.208171526262506,28.85703356402154,-102.48998790318497,0.32964309371574907,0.7453457735231318
0.524078,-105.68904876708984,35.595726013183594,-3.137528291207543,-18.268686482465593,10.681737111851172,24.612030013723594,-65.10390413773659,0.32952358122931796,0.765306940854844
0.526508,-106.00151062011719,35.70485305786133,-3.138105907263435,-17.695032554454563,11.616062594079311,21.176627568767476,-105.43297944658865,0.3293456703741385,0.7848936712230848
0.558674,-106.2647933959961,35.78769302368164,-3.138844486443852,-16.61626564675358,11.468679064621485,16.732324221130437,-104.82062288012688,0.3292533456161984,0.8050069764312868
0.560795,-106.48628997802734,35.817420959472656,-3.139667965762625,-15.500697679804567,10.581346137656679,11.74294872583793,-104.07941907931624,0.32931912384895495,0.8261078710920293
0.562875,-106.65967559814453,35.80521011352539,-3.1403718453999874,-12.977196352257792,9.527722863837804,7.460544767192289,-104.42042622639772,0.32946466409447867,0.8477140582277175
0.565474,-106.80900573730469,35.76324462890625,-3.1409565353750155,-12.170416968816825,10.327238341096463,3.8928564990518355,-105.61153454202375,0.3296281445300898,0.8694421114654939
0.598995,-106.9922103881836,35.68275451660156,-3.1415720811740053,-12.445396969706954,11.49366389660539,0.126113066402365,-104.34697821934553,0.32987146764714487,0.8916821028449143
0.601416,-107.1925277709961,35.54389953613281,3.140747968392385,-13.149358954250781,12.816011571808309,-5.187786941152676,-106.06132086402437,0.3304201761447782,0.9158561756029518
0.604026,-107.3928451538086,35.318424224853516,3.1396194964949435,-13.532301194030362,14.260343864266714,-12.141160707280722,-94.09119421101671,0.33149693596232427,0.9433825690274042
0.606552,-107.55288696289062,34.998775482177734,3.1383119486229307,-11.819549297379623,14.4388730563398,-20.21684767904999,-106.81296332157626,0.3332606267002256,0.9752927315323301
0.638747,-107.6259994506836,34.60847854614258,3.137190643946368,-8.479434821534356,13.54947997356659,-27.145236186307308,-105.64200910106103,0.3355992468368545,1.0109260979453143
0.640762,-107.5365982055664,34.18002700805664,3.1359177626628467,-0.8235939751562165,6.130221565472913,-34.96560983312786,-33.74376740565085,0.33872540687254277,1.0516546633177015
0.642871,-107.23234558105469,33.743614196777344,3.135255129031051,7.103955531664733,-0.3611896347378244,-38.938023948745176,-99.67532247033998,0.3422426509817829,1.0950369048229431
0.6454440000000001,-106.88458251953125,33.356197357177734,3.135277234812835,10.026877357250568,-4.975034659356417,-38.67636281673657,-99.62730919545201,0.34573153143929064,1.138461927213451
0.678843,-106.6215591430664,33.03412628173828,3.1357560664991215,8.954660600963626,-5.722854142334542,-35.65591314687895,-105.6225060428376,0.34896299884560716,1.1804887885271291
0.681516,-106.44175720214844,32.75075912475586,3.136115462320131,7.770025761127444,-6.421860397748702,-33.40388024921527,-101.40946774708266,0.35217634808113407,1.2226048491015893
0.684264,-106.25955200195312,32.482357025146484,3.1363057923190767,6.029070305846432,-10.322737246433425,-32.18789484108873,-105.11687191223969,0.35562351439196155,1.2663919263751802
0.686904,-106.06851196289062,32.2053337097168,3.1359267443114676,1.9949844912223615,-15.477020829046719,-34.433674700567266,-103.62724320234449,0.35990653104794224,1.3156473981035952
0.719294,-105.91559600830078,31.86115264892578,3.134959990172518,-5.7998717823024295,-22.46937918052308,-40.25101853365341,-104.90878967657208,0.3656531083467207,1.3743678024322354
0.722375,-105.82451629638672,31.434345245361328,3.1337823045894955,-14.102586131233284,-28.221158320218983,-47.3574376291744,-8.82687847398374,0.3731186556872411,1.4442498821711336
0.725819,-105.80630493164062,30.95160675048828,3.1331541435741848,-19.73842024844728,-27.12639510948183,-51.157611449396924,-104.87062647557926,0.3817130546570894,1.5216938200550105
0.728763,-105.86878967285156,30.461660385131836,3.1330189586961184,-22.92836789274794,-22.63648488120932,-52.00789145388806,-104.77840241079248,0.39068349360840277,1.6020404888386548
0.759457,-105.9367904663086,29.970975875854492,3.132610529943132,-24.321236417357593,-24.091183693280517,-54.520540464617326,-94.73317464703696,0.39988922405656363,1.684429167000374
0.761527,-105.93851470947266,29.446346282958984,3.1317609096707764,-26.684910464552424,-29.867051202631757,-59.67893496733732,-104.7206094222016,0.40936531948079175,1.7690950115102322
0.763621,-105.87287139892578,28.889341354370117,3.1312818786413703,-23.50856514198384,-33.413500570661235,-62.54808570179541,-104.86034597789562,0.41847982751036494,1.852084336050123
0.76595,-105.63639831542969,28.41665267944336,3.132242394956896,-11.472291380918774,-38.540308863564505,-56.59427468909241,-69.97725511550523,0.4258503604416714,1.9246886233058325
0.799166,-105.19528198242188,28.14335060119629,3.133582664881166,-4.745859187700864,-52.05473630631059,-48.27920239351889,-104.68431223485342,0.4314055192434637,1.9863496827461455
0.80474,-104.68798065185547,27.988847732543945,3.134252387911181,-3.909397082787491,-67.21940233932887,-44.02902155983007,-101.84018745333803,0.4360547832115962,2.042667877999382
0.807594,-104.20081329345703,27.861188888549805,3.1352230727300605,-2.5792508256563,-71.65257760126066,-38.02861158151466,-103.25202945900966,0.4397445557727902,2.0932495328127154
0.810136,-103.84813690185547,27.806840896606445,3.137148562304472,-4.169107768901233,-62.232694886680896,-26.442783673570055,-97.01911175829026,0.4418701920214412,2.1342352645760854
0.839526,-103.84072875976562,27.810951232910156,3.138778235145306,-14.835807792407799,-39.111357074407174,-16.744808099385928,-103.02279950836179,0.4428524281468575,2.16817035914938
0.843304,-104.23104858398438,27.688344955444336,3.1385687133652787,-24.970842048939165,-12.179117776045775,-18.059023580608297,-103.15618988988119,0.4442353359712732,2.2046846639707436
0.845764,-104.7638168334961,27.290672302246094,3.137071237425972,-26.32687707090223,15.569952382893911,-27.140096468956873,-99.94909142759938,0.44700074568762654,2.2499723750279133
0.847858,-105.20523071289062,26.65856170654297,3.135260725847104,-19.651299478036474,33.53704844746301,-38.168203572676795,-104.15017723993371,0.4512734841083017,2.304904667470149
0.880609,-105.40361022949219,25.960128784179688,3.1340978027638946,-9.99104874618562,33.8405308277596,-45.26361581835031,-104.35715723616856,0.4563811431559844,2.365351385001322
0.885022,-105.34603118896484,25.314184188842773,3.1333069304053742,0.8862954852629038,28.03349033503642,-50.012800027516505,-104.14874714706454,0.4618466999701315,2.4283677642030415
0.888087,-105.13825225830078,24.706388473510742,3.1332826196842207,12.01701092005834,28.034967363444434,-50.06061476680117,-103.19317537729852,0.4669711816611636,2.489584516265262
0.890283,-104.93647003173828,24.124635696411133,3.1336329579698967,18.943789210218824,37.91138504478973,-47.85801877835005,-103.97161936079013,0.4714387224765411,2.5469955677505647
0.920322,-104.86946105957031,23.51066780090332,3.1336518745855027,18.92266002002139,49.44748576048206,-47.71378908874148,-99.31410050619783,0.47542382902995717,2.6016560992375344
0.925287,-104.92875671386719,22.820703506469727,3.1329102239649713,13.696559559606351,52.38902625485852,-52.19986075070044,-92.52775637046378,0.4792886194661146,2.655811053893768
0.929924,-105.0229263305664,22.058147430419922,3.1316980559653844,6.308631229235523,43.94271870457238,-59.541402278209944,-104.33368900909002,0.4831575085184053,2.710234592859507
0.933466,-105.07288360595703,21.303150177001953,3.1310334826699844,0.47994111791666433,26.70570156038594,-63.57102947340988,-99.85327816695946,0.4866900175100264,2.762787683038904
0.961453,-105.0551528930664,20.661062240600586,3.1311167881076902,-4.753835994877793,6.369300811424984,-63.05881309698311,-89.82730077708916,0.48960642451220604,2.8116916443364546
0.968047,-105.00373840332031,20.15574073791504,3.131593265020423,-9.849566500170683,-15.522175209649673,-60.161037039713506,-102.36564297500523,0.49187995720689864,2.856739550487098
0.972119,-104.9211654663086,19.746809005737305,3.131936046237695,-13.163112393918247,-34.585489315249134,-58.052885492010724,-99.37741273030954,0.49367384561006383,2.8989166129447703
0.975557,-104.80125427246094,19.364166259765625,3.132078170050548,-13.996631967959814,-47.62452876157316,-57.13305367120135,-102.7454549040545,0.49512406534777886,2.9390470548257235
0.99922,-104.65192413330078,18.96526527404785,3.132032766828098,-12.704147587355486,-53.30387545266837,-57.323913062273604,-103.73717508625694,0.4963193092608462,2.977666556345046
1.001524,-104.50906372070312,18.52960968017578,3.13197439902353,-11.975763407660631,-52.318374778083914,-57.595194515728174,-88.50899823639908,0.49728546595153833,3.0149217597846087
1.003595,-104.4123764038086,18.077838897705078,3.1322476723551196,-11.231084957927067,-46.8566174233778,-55.9069356774411,-103.54287615353698,0.4979974134124295,3.0506404249417707
1.006084,-104.35746765136719,17.653039932250977,3.132935596881659,-10.43899901893809,-38.77973772982472,-51.763934172208124,-103.40485591450968,0.49845293843915955,3.084792673406438
1.039738,-104.35057830810547,17.27311897277832,3.1337830021280872,-10.945892116680477,-30.254367324801084,-46.69366618525422,-102.05517670370024,0.49869786238644315,3.117650297744601
1.042284,-104.39895629882812,16.93365478515625,3.1346200633212966,-12.467993796802295,-23.87265349833325,-41.70805839306262,-103.45848156592577,0.49878623081994106,3.149539643804257
1.044892,-104.47212982177734,16.644325256347656,3.1355956516981234,-12.747914585783281,-19.53942439452625,-35.89735691894432,-86.35645808949135,0.49876247372962645,3.180730036772564
1.047334,-104.52519989013672,16.42534065246582,3.1367316149311577,-10.971009283579553,-16.255385771766786,-29.11227431821033,-103.35147761995856,0.4986769885517648,3.211531088026147
1.079229,-104.55996704101562,16.24559783935547,3.137495966349753,-9.136540854598248,-9.659307311971746,-24.542754820066737,-102.59076737652272,0.49855209508533976,3.242079158507913
1.081322,-104.62347412109375,16.036733627319336,3.1379037558423883,-8.50752055940145,-0.6986649060382174,-22.11313700398273,-102.40913253632644,0.4983766470432377,3.2723017379346415
1.083503,-104.74860382080078,15.766040802001953,3.1377604944123223,-10.162669201913237,9.624930969879072,-22.999401860116073,-77.87319122586827,0.4980870467814573,3.3017960540863025
