Time [Sec],Roll Angle [Deg],Pitch Angle [Deg],Phase Angle,Angular Velocity X [deg/s],Angular Velocity Y [deg/s],Angular Velocity Z [deg/s],EKF Roll Angle [Deg],Step Frequency [Hz],Phase Variable
0.0,-98.70722961425781,11.398944854736328,-3.1249800818443805,-6.181050552615678,-128.66956245280142,93.96117071362706,-97.72993031114636,0.4,0.025132741228718346
0.002445,-98.25743865966797,13.623717308044434,-3.1256009180379074,-2.9587115899498784,-144.25385481785776,90.03693333732042,-97.1707100783219,0.39966608867303116,0.048167455713925056
0.0412,-98.00452423095703,13.537220001220703,-3.1260712013386907,-1.5429173219476664,-157.01040788539382,87.16376645163037,-83.52041594463554,0.3990924174606534,0.06967473414244472
0.045008,-97.593017578125,14.577459335327148,-3.126646732403671,-1.100967156937641,-164.1050073385561,83.57885287328997,-96.68240518175386,0.39835876505380635,0.09014077625512193
0.047548,-97.16204071044922,15.540640830993652,-3.127534940412648,-0.6312216971828074,-165.39077678943266,78.26409143480629,-81.32768502958227,0.39754871212014375,0.11008068296001818
0.049632,-96.75199890136719,16.397838592529297,-3.128587993432209,-2.410338539934592,-158.31012458255555,72.09515336890998,-96.15619257269226,0.3967303548559124,0.1299175148901907
0.080146,-96.41436004638672,17.111223220825195,-3.130455238926816,-4.7269438325681605,-147.81870813060584,61.52713634541858,-94.27315761306461,0.396039980034613,0.1505070653219839
0.084713,-96.22270965576172,17.615514755249023,-3.132954337752997,-14.880391852215057,-131.8314209441404,47.625560120137834,-93.18469562132492,0.3956121049876264,0.1727025729495408
0.089143,-96.31369018554688,17.869213104248047,-3.136409205329285,-27.758315673754947,-108.76848124927028,28.60443097039966,-95.47141944398545,0.3956510720614809,0.19780445194945334
0.092842,-96.56704711914062,17.78412437438965,-3.141220955558311,-34.29651084165506,-90.57677099875072,2.056562275128023,-95.4611747051712,0.3964837206022587,0.2278956270543786
0.119575,-96.78424072265625,17.28424835205078,3.1357547851373857,-38.32605265949037,-87.32935072767899,-32.373266175162875,-91.58601404958064,0.3985489374071211,0.26578357381707046
0.121763,-97.01242065429688,16.403026580810547,3.1299845701164135,-46.173332128998894,-85.5940865275239,-64.52529569291987,-96.23356524599363,0.4020217924687202,0.312645733991159
0.1238,-97.39972686767578,15.341532707214355,3.126570996566383,-53.5515688478243,-70.27848697422667,-83.83606413705431,-96.50040696812246,0.40658889542948096,0.3666014624066417
0.125824,-97.79796600341797,14.293649673461914,3.125388237718386,-43.20474750060376,-44.18260860860156,-90.80794558139898,-96.33905680661769,0.4117307247902356,0.42445526283640844
0.160498,-97.98284912109375,13.369894027709961,3.1262525213384134,-30.37850259787148,-22.6645057322793,-86.12631535821879,-87.0274833034864,0.4167110031746207,0.48161707921200475
0.164806,-98.29226684570312,12.71158218383789,3.129322636406304,-41.644517143213996,-4.893508240762676,-69.1049170408459,-97.62106862928634,0.4205221151185936,0.5317457263072607
0.168343,-99.11661529541016,12.5272798538208,3.136091379334,-64.36732707779582,14.994660917029371,-31.241852169339435,-98.1048984536829,0.42130456117753373,0.5630841636390259
0.170523,-100.19578552246094,12.993067741394043,-3.1388107170581714,-73.59221472176088,23.33540789369297,15.97057029847184,-98.67277080195088,0.41808300645776597,0.5693138846438901
0.199849,-101.16041564941406,13.880969047546387,-3.13342784476498,-77.20975611376645,17.42174814802589,47.32481323060384,-98.15705549301396,0.41237671556957334,0.5693138846438901
0.20382,-101.89531707763672,14.715736389160156,-3.132267676219884,-64.5223723719551,10.557018711380387,54.44239627032321,-83.30211313014622,0.4064592251503581,0.5693138846438901
0.207625,-102.28614807128906,15.248095512390137,-3.1339266375420975,-51.58586772545131,-2.5630654117574854,44.928062284805925,-101.62152458618776,0.40177222377511473,0.5693138846438901
0.212172,-102.5056381225586,15.423977851867676,-3.138358815090864,-44.65541479351736,-24.849903304400335,18.99285387412161,-99.98215225895275,0.39963837580843725,0.5811506157844736
0.23964,-102.6387939453125,15.156818389892578,3.1387182883932847,-41.28045781516856,-47.21709090210898,-16.90352632777139,-101.71884509185335,0.4007742687409685,0.6133976612793302
0.241827,-102.69207763671875,14.478548049926758,3.1328511853967185,-34.069164580036606,-57.05743323180556,-51.43455854476802,-100.37264561543293,0.40511775388010657,0.6658699732560043
0.243948,-102.77653503417969,13.518775939941406,3.128187918829264,-37.764829675768766,-56.61658208692167,-78.94067631360942,-101.07663666981142,0.4123267678533911,0.7366198431207688
0.245932,-102.972900390625,12.417011260986328,3.1246823116188494,-35.70139196146748,-60.65026982958317,-99.77905071656305,-102.03526555082439,0.4221814157011285,0.824445676580434
0.279835,-102.88648223876953,11.175191879272461,3.120976892644509,-13.045605819437348,-59.658792739474954,-121.54633084663843,-101.8937438510828,0.43531797392382615,0.9335115468731733
0.284312,-102.65226745605469,9.979293823242188,3.1226050634148126,-13.3084289373785,-49.59960773367658,-111.68972583652805,-101.0458213454941,0.4483370809739841,1.0426648439804176
0.288525,-102.69671630859375,9.331766128540039,3.1279242381510604,-9.724465609106375,-26.313421598237305,-80.43117385466793,-93.89096973574945,0.45803392591557,1.1317617672417841
0.292536,-102.73992919921875,8.878567695617676,3.128836233673566,-7.315229077505683,-9.417661195552219,-75.09555984864821,-101.9430200273934,0.4674675659226148,1.2198141958622946
0.319748,-102.80107116699219,8.050548553466797,3.12680910219181,-8.872736750737554,-1.0380494820158934,-87.08245987975054,-73.60111861403006,0.4790135651342816,1.321731701883626
0.323795,-102.87923431396484,6.88692569732666,3.124205148714742,-6.8101114020606754,14.56466806537851,-102.5017758555944,-102.42523299156488,0.4931266013637209,1.4405038337040466
0.327287,-102.94950866699219,5.524435520172119,3.122041641186138,-7.831996921240616,25.091861048200744,-115.33775719298853,-100.44149173785873,0.5092936797958589,1.5730686415315556
0.331359,-103.11360931396484,4.041599273681641,3.1196065211388726,-14.68842255540268,31.40002569013859,-129.91444639130629,-101.70266059355346,0.5276830557390715,1.7206123639254782
0.359672,-103.42389678955078,2.3986263275146484,3.1174724342661206,-23.733826488358154,42.319783795507306,-142.9581815926847,-102.45590108592157,0.5479204448724153,1.8809229342104534
0.361776,-103.82315063476562,0.643436074256897,3.116073913064741,-30.125133315515274,54.75957317990568,-151.83446321160147,-101.8729123553075,0.5689813606806394,2.0476794278596904
0.363811,-104.23956298828125,-1.1115480661392212,3.1160947513522257,-35.109982956709,67.24127943524041,-152.3189012086738,-94.53766288684538,0.5888497386107368,2.208266281402445
0.365863,-104.67904663085938,-2.7195472717285156,3.117795112395204,-40.1430571485376,76.95335764251332,-142.7566910121693,-103.51731652639222,0.6054462692394612,2.349543879056758
0.400498,-105.12335968017578,-4.096363544464111,3.1202542903893837,-42.040353926372916,79.50827186382664,-128.54313565126446,-103.7702749744418,0.6182192975330045,2.4678404937906593
0.40404499999999993,-105.51226806640625,-5.321927070617676,3.121862260737928,-40.64691678851486,78.59986353440412,-119.29374811874656,-102.24674893394479,0.6282264447640109,2.5695611183080445
0.40617,-105.81411743164062,-6.558405876159668,3.122384902138265,-35.9891068500651,77.47573734042507,-116.4652028589042,-68.29360918905545,0.6364914772499444,2.660964480660253
0.408045,-106.03746795654297,-7.892271041870117,3.122217467221687,-33.23743536933123,85.81479043017451,-117.7286649119515,-105.40433516109717,0.6435394351836609,2.7452400453750183
0.440695,-106.2507095336914,-9.324091911315918,3.12156269821421,-31.72709612873382,82.58778559453195,-121.95301397019932,-101.84125847114748,0.6496169911890336,2.823861231208903
0.445246,-106.48261260986328,-10.771502494812012,3.1210279681189497,-30.83760059312306,76.54998033051072,-125.48292403515362,-100.18772991921979,0.6546548797938031,2.8963318582129296
0.44957,-106.718994140625,-12.167531967163086,3.1211066546166575,-28.550831060887987,64.01624169407881,-125.28014937907427,-105.42636385351138,0.6585099090791657,2.9616869007974063
0.453829,-106.90324401855469,-13.458632469177246,3.1214254249071183,-21.633297431769115,52.21771145009626,-123.54313665049166,-104.73059601919626,0.6612561842709572,3.0203176545855253
0.479825,-106.96804809570312,-14.695920944213867,3.1215305571556233,-11.744164499510193,40.25100145818048,-122.9734305718209,-105.61828948439779,0.6630676926515421,3.0732476488391787
0.481937,-106.9987564086914,-15.880027770996094,3.122308056402595,-9.79734885019229,34.092616034551845,-118.24036902419051,-103.70789562331012,0.6640169763041036,3.120873945778635
0.484107,-107.12808227539062,-16.950607299804688,3.1234962709552954,-11.540246640518523,26.739582713763788,-111.08748756684051,-106.1732249965195,0.6642750162672709,3.1642166757761903
0.486169,-107.33574676513672,-17.874168395996094,3.1251719772665036,-13.819582365615682,18.933851284976456,-100.99435310577259,-102.62179231173171,0.6640353581518171,3.2044484896477945
0.5206259999999999,-107.556884765625,-18.63250160217285,3.127047814010162,-12.7529100153875,10.169543787312856,-89.63970319557083,-106.21131799553582,0.6634934291225474,3.2427660211914247
0.523587,-107.73267364501953,-19.25490379333496,3.128663316866823,-9.279230336548986,1.5227713588255964,-79.81242701775648,-106.52746519374875,0.6627842045289706,3.2799983532983026
0.525608,-107.87208557128906,-19.82142448425293,3.1294114570964195,-5.155186875131028,-7.169552241566712,-75.29101254193729,-106.71303316651839,0.661906347983491,3.316126577707205
0.527392,-108.03474426269531,-20.417184829711914,3.1293152319207684,-4.024079800933413,-15.762618359001632,-76.00025938535141,-106.94439733812946,0.6607656797221625,3.3505483500510467
0.560781,-108.29429626464844,-21.08582305908203,3.128585567378259,-6.670122833039856,-22.01268028921747,-80.71099987477419,-29.83673136598583,0.6592364128929459,3.382456815282144
0.565066,-108.66351318359375,-21.87766456604004,3.1272067951676155,-11.817105797204052,-22.7595085409923,-89.5719682095718,-108.02465821115719,0.6571510760372251,3.4107753028242267
0.5694860000000002,-109.13560485839844,-22.848705291748047,3.1254701013745416,-20.706666157640996,-16.425787038727556,-100.82320905573958,-108.03436822945461,0.6544002820373331,3.434781574236571
0.572842,-109.68655395507812,-24.0023250579834,3.1240829874317813,-31.067822364382096,0.1339486274016919,-110.05208553017994,-108.65210770984285,0.6510914230269236,3.455108582289948
0.600647,-110.12240600585938,-25.268110275268555,3.1241502585196037,-33.82304554348437,29.538908424336835,-110.06481017260367,-107.563191458228,0.6477115473156734,3.4747814775088615
0.604114,-110.1572036743164,-26.529451370239258,3.12573814247721,-27.362355947190967,67.98328386591392,-100.07481156800294,-24.162544868797813,0.6447982071602217,3.4971733382231545
0.608209,-109.71800231933594,-27.702041625976562,3.128252233252069,-17.98249984869477,106.27548269278313,-83.86790647896491,-66.22080695008654,0.6426877318627005,3.5244266970558518
0.612775,-108.98296356201172,-28.694499969482422,3.1313957204653105,-11.746834249702022,131.1668298775198,-63.67454782047059,-108.07040221963577,0.6416140892325674,3.5580620625964805
0.639974,-108.22026062011719,-29.386014938354492,3.134744221641714,-6.739168361585868,130.93952118194179,-42.4648057870596,-107.45851834875593,0.6416653990005787,3.598698253560419
0.642099,-107.60664367675781,-29.71714210510254,3.1384388884120433,-7.041414477642688,118.85522265327506,-19.444308887691946,-98.62958779384776,0.6430190828681462,3.647520726218945
0.644135,-107.1464614868164,-29.73208999633789,-3.141007156989741,-9.22415681372388,107.53578236824471,3.594387477606033,-105.82055368016422,0.6457618969083277,3.705156415633672
0.646255,-106.721435546875,-29.557138442993164,-3.138282088571711,-9.193683070968222,99.15243550172774,20.243145614901835,-104.52311001587891,0.6494742451732206,3.769056204332689
0.681076,-106.29562377929688,-29.38210105895996,-3.137723642285496,-6.742259449072122,89.14721923565622,23.563520844045765,-104.69118281250444,0.6530332857971413,3.8322259864352017
0.684108,-105.87391662597656,-29.376876831054688,-3.1390391309019767,-1.1159983755884293,81.01876136858579,15.4900306318683,-103.7192610171916,0.6553581523776372,3.8878648454391254
0.686181,-105.38787841796875,-29.567026138305664,-3.140598357632349,4.251732140404053,80.18237738396105,6.003840013939228,-104.40025462590408,0.6563635035110741,3.9353590200488884
0.687976,-104.8566665649414,-29.803497314453125,-3.140931185659528,4.646946522574855,80.88282011353503,3.9739970119574712,-103.84651407530211,0.6569911490889422,3.980543168736162
0.720874,-104.37870025634766,-29.895008087158203,-3.1399083481650982,3.6372853344619447,76.68410475524226,10.072929053955733,-88.4304422562009,0.6583056657657097,4.030082491954697
0.724645,-103.99465942382812,-29.791410446166992,-3.138717939477753,2.9393996569584906,65.06742146772213,17.128902079814303,-102.06393862430765,0.6605492354273428,4.085541820756025
0.729445,-103.76575469970703,-29.574440002441406,-3.1381157752852067,1.6184720207727012,45.833267255507714,20.671306268307838,-101.82140450500756,0.6634276468374755,4.145130945543247
0.733168,-103.70732879638672,-29.286325454711914,-3.137675102422568,3.2968620894827505,21.145575821253306,23.278177738637435,-102.71568049257142,0.6669678323233466,4.209058975402623
0.760081,-103.69957733154297,-28.862577438354492,-3.136667280595771,13.719959787702816,-8.62921062474898,29.264577291417858,-98.28074360416066,0.6717744846097564,4.281166887269469
0.762189,-103.60722351074219,-28.22566795349121,-3.1350110712110384,29.881722448968944,-38.28440216593164,39.07052620354884,-102.64790207004702,0.6785323096373466,4.365836389905696
0.764339,-103.42598724365234,-27.36670684814453,-3.132646891276872,40.59697444530372,-59.26655546600863,53.01286158270164,-101.24815466463,0.6879527985623325,4.467660509889216
0.766383,-103.15412902832031,-26.288244247436523,-3.129425843715853,50.0139850653375,-66.5636700280618,71.91299905393491,-99.51394450264806,0.7007478534118372,4.59127955968378
0.800465,-102.66478729248047,-24.997859954833984,-3.125798576276473,60.85932825969893,-64.16618483692811,92.9125795816792,-93.09490827514416,0.7168975046157213,4.736780097010049
0.804404,-102.15628051757812,-23.476394653320312,-3.1215631507061725,53.05914635961223,-63.650792422537286,117.25083853799575,-100.32089590544382,0.7362649688601247,4.903513462465362
0.806413,-101.90365600585938,-21.64976692199707,-3.116758542599606,42.2456455071614,-61.54253842199696,145.02748302438843,-101.01592286941427,0.7587667102134533,5.091156965467881
0.808277,-101.65892028808594,-19.556285858154297,-3.1120252137653237,35.381469315838665,-47.300064040146296,172.26951494406586,-70.90802373398623,0.7839564646439975,5.2971035788492395
0.840693,-101.32062530517578,-17.35622787475586,-3.1086937546816054,27.801817148578756,-24.389944705313336,191.05507599197216,-100.8633802219515,0.8098014267195064,5.508749702227886
0.843248,-100.97384643554688,-15.254837989807129,-3.107935885754765,23.11162016063209,-5.544185785157118,194.79058841132218,-59.96381284877726,0.8323221917446196,5.7011331664010925
0.846016,-100.56021118164062,-13.375385284423828,-3.1088916782949263,28.75406504718901,7.218702282834124,188.47960290125712,-100.21052899327957,0.8489156750149679,5.8576894423403685
0.84935,-99.8710708618164,-11.727624893188477,-3.110777401370236,47.26563647163484,25.182528394338078,176.38658905120946,-90.32010883476882,0.8597885906570545,5.979344931111815
0.880264,-98.93528747558594,-10.327392578125,-3.1132075732921507,56.16415035630003,49.89141732068162,160.94616779083026,-97.06257871420588,0.8664299021109256,6.075095632060152
0.882667,-98.20211791992188,-9.093011856079102,-3.1146988128807855,42.362994987291394,75.37643771788663,151.35648657348398,-97.36850791754865,0.8704723304906693,6.154934354967528
0.884704,-97.89788818359375,-7.849410533905029,-3.115210316303187,22.715896075594475,88.64833538848933,148.01645576745605,-96.69845538823165,0.8728258673331448,6.22441545264853
0.886788,-97.84169006347656,-6.491939067840576,-3.1146573484662614,9.202383024423526,87.31008959421956,151.03358255028246,-96.6108476835178,0.8739156023242509,0.002918419007319706
0.920333,-97.90682220458984,-4.996182441711426,-3.1139681471642158,-2.77028075801439,78.01183205819021,155.00317921286714,-96.95296261193788,0.8738601489229926,0.057479731733687645
0.92266,-98.13862609863281,-3.43843936920166,-3.1136351408120375,-16.26989821620577,63.19770499375532,157.2440823172783,-97.00511658227148,0.8727560627699518,0.10544880632146875
0.92544,-98.52204895019531,-1.8446097373962402,-3.113333351926888,-26.515699358054526,45.0112949700317,159.5633413518478,-96.56466100554039,0.8707096240097871,0.14742753307504053
0.927581,-98.93000793457031,-0.17675362527370453,-3.1127098482218467,-30.14040220340484,25.867147283152427,163.76113463460263,-98.03133228075588,0.8677845544983946,0.18375707846256173
0.960223,-99.29383087158203,1.5715572834014893,-3.112340103923109,-31.555258814500053,4.3554391714405885,166.46867626310905,-84.34160649061785,0.864123152782531,0.21527632462398252
0.962522,-99.62291717529297,3.3409011363983154,-3.1124783148046222,-30.80037606214649,-16.77374761089927,166.23082175545252,-98.92513130476648,0.8599358119705226,0.24326094532938664
0.964419,-99.87128448486328,5.08297061920166,-3.1131543867706477,-26.815182662592076,-37.96557235057003,162.7734209787271,-89.10153841540361,0.8554509150363412,0.2691128673972304
0.967293,-100.02286529541016,6.763777732849121,-3.1144609860600934,-23.904500962885727,-61.71618915145537,155.52671321274863,-99.06161049078472,0.8509118226273453,0.2943424748687938
0.999544,-100.08924102783203,8.319560050964355,-3.116778635722246,-19.245203750744196,-83.09885449917816,142.3299407928269,-99.17345068645756,0.8466465019673787,0.32100704138405745
1.001704,-100.00520324707031,9.701244354248047,-3.1190862436397957,-10.209481610937212,-95.00337561870097,128.9807185506305,-98.6684333766961,0.8426814039489127,0.34928996438826987
1.007463,-99.74208068847656,10.958563804626465,-3.1211276910913237,0.10018278015683389,-104.18321816508981,116.96950304608292,-97.92115061406417,0.838952377735982,0.37880703583634884
1.012391,-99.33149719238281,12.117412567138672,-3.1230345149973857,9.86363156721903,-111.08431835906563,105.6316075899152,-97.9238389771926,0.8354257402051205,0.40936145125083295
1.039436,-98.86001586914062,13.19686508178711,-3.1244640495924614,12.652930560090498,-118.11155165644408,97.03038451906399,-86.43956862826414,0.8319312295120773,0.43989614036948627
1.042709,-98.42930603027344,14.264963150024414,-3.1251824816430576,10.909638326339696,-126.55340592339138,92.55484842389977,-97.37492123890881,0.8282049851004604,0.4687552370099959
1.044701,-97.99641418457031,15.361963272094727,-3.1254166966736694,10.578428793107436,-134.22344881412724,90.8323771680601,-96.16806374924056,0.8240959218736814,0.4949748852543878
1.046819,-97.49063110351562,16.46600914001465,-3.125591988210712,12.104831784859071,-139.3570736358222,89.38417215834231,-93.85445277677807,0.8196577247742526,0.5188683443291228
1.079966,-96.89762878417969,17.5310115814209,-3.1259844593659727,15.681890645653958,-141.62563900637187,86.66100305701491,-95.74910909000049,0.8150641215537785,0.541506497799406
1.08301,-96.26746368408203,18.51506996154785,-3.1266245488670465,17.18939365019852,-134.6038357093836,82.56603144202546,-95.2582318866166,0.810473971540767,0.5638777238094609
1.085507,-95.75142669677734,19.350534439086914,-3.1283277431955647,12.546450472250939,-120.63806595118848,72.7775917198318,-94.05345089770822,0.8063900649845379,0.5891413636378322
