Time [Sec],Roll Angle [Deg],Pitch Angle [Deg],Phase Angle,Angular Velocity X [deg/s],Angular Velocity Y [deg/s],Angular Velocity Z [deg/s],EKF Roll Angle [Deg],Step Frequency [Hz],Phase Variable
0.0,-87.35050201416016,-4.283757209777832,3.133745297234191,-22.931523440144485,-29.30286050171578,-39.275373822041274,-86.48564555857442,0.4,0.025132741228718346
0.002577,-88.06021118164062,-5.372070789337158,3.127949109215188,-47.608634911374544,19.175773170283723,-68.84248068236651,-39.91031412925652,0.4002643900741789,0.05192669428688165
0.040565,-88.28248596191406,-6.115154266357422,3.125071889088518,-40.73196288896527,28.127262002151525,-83.57316332571135,-87.99300654279163,0.40089439924565606,0.08103451200350813
0.047291,-88.56526184082031,-7.2420549392700195,3.1219542621676872,-42.042437134069765,47.78020926332526,-99.66617501033943,-87.83413705517901,0.40201765501639825,0.11328107414914887
0.051212,-88.87994384765625,-8.435843467712402,3.120940259584089,-40.68215714953754,57.495350810440925,-105.18614948243614,-87.9638436305352,0.40358269659203083,0.14837403461454693
0.053768,-89.11804962158203,-9.444355964660645,3.1226951531250853,-35.12149865564964,53.73724412531651,-96.50379059443435,-88.24504803183605,0.4052992379315972,0.1845172306330666
0.08336,-89.34693145751953,-10.248963356018066,3.124041996229624,-38.23330893584536,59.777965880113335,-89.8545877770486,-88.50327902782712,0.4071206614950823,0.22142727457313577
0.090715,-89.58883666992188,-10.98076343536377,3.1259392539312003,-33.0926490193053,59.85930660293902,-80.35643792476965,-19.064090930652778,0.40887501234557694,0.2580303316461533
0.093231,-89.68383026123047,-11.650465965270996,3.1266396333763633,-25.457574989572613,55.11317207323724,-76.84189578544789,-89.38479689972311,0.4107154737843733,0.2952846666172551
0.095167,-89.71839141845703,-12.363584518432617,3.1269898480746505,-19.637995977080582,44.76779531102616,-75.07084139404192,-63.53606996524543,0.41270968447106426,0.33362067620642516
0.122473,-89.78507995605469,-13.079596519470215,3.127318360290192,-17.660097844397242,32.424202310898245,-73.43632248414451,-89.27936196410174,0.41488026656643456,0.37319015999207594
0.129143,-89.94677734375,-13.79157829284668,3.127474638636026,-19.84800209594367,18.717221590165746,-72.76302292633217,-88.00247363276743,0.417308798290934,0.41451677079275995
0.134046,-90.20679473876953,-14.544355392456055,3.1269197678889356,-22.563948272223787,8.29171304861208,-75.84179216641795,-89.39663630134324,0.4202808046466257,0.45941072255947035
0.138358,-90.50399780273438,-15.405370712280273,3.125585704169332,-24.115022761031152,-0.07733128172096536,-83.01107973815432,-81.6909095527965,0.42418889032134866,0.5103729708165414
0.160646,-90.80831909179688,-16.388011932373047,3.1240643321494175,-24.913097922148584,-4.478349279328614,-91.20803074222164,-77.01086803729453,0.42930011837572163,0.5691403378607809
0.162747,-91.11038208007812,-17.446674346923828,3.1228448451602677,-25.397109032397783,-6.620973218659267,-97.87953412724748,-90.58938801028376,0.4357233218679582,0.6364722376297145
0.164796,-91.39839935302734,-18.509235382080078,3.122525418389969,-24.323420370344703,-7.158498007281869,-99.86230389235634,-88.86503666093782,0.44324726828593475,0.7111238909547137
0.166797,-91.63362121582031,-19.4851131439209,3.1233291437137973,-21.093377808068777,-6.214139404049805,-95.89810307921596,-90.515591960437,0.45136133317559163,0.7899561114863243
0.201231,-91.7918701171875,-20.330293655395508,3.1247250813667833,-16.68696322730509,-4.0140155171914,-88.71981331815351,-90.93218846447928,0.45960231654250444,0.870095606062401
0.204998,-91.87759399414062,-21.07030487060547,3.1261468715459104,-12.13884698069938,-0.9970669596136417,-81.31612731448064,-91.01267636021987,0.467699571466692,0.9498498244549998
0.208331,-91.92106628417969,-21.74092674255371,3.127445649812193,-9.413049964088813,1.6586911628134982,-74.51284225960856,-88.16426408991835,0.47545187444776243,1.027945411398603
0.211652,-91.97244262695312,-22.350555419921875,3.1287236314306424,-8.613174194351437,2.4502490428022687,-67.81876509937582,-66.08548958973448,0.4826244245900427,1.1028853953855993
0.241427,-92.05831146240234,-22.897247314453125,3.1299322835113372,-9.37087269219034,2.237164856501031,-61.506024230694074,-91.63229697269023,0.4890824469108282,1.173786533279698
0.245054,-92.15562438964844,-23.396081924438477,3.1309227073778914,-9.20239583102822,3.74322669113072,-56.34082344446616,-91.11694138629959,0.4948825905944744,1.2409598672966098
0.248835,-92.22169494628906,-23.871004104614258,3.131635611903156,-9.494085035949137,7.76720233167929,-52.61388974271368,-91.30663980128112,0.500197081726976,1.305446190115502
0.252421,-92.26738739013672,-24.33617401123047,3.1321616125607865,-11.209084064836809,14.66129475156668,-49.85897733721865,-76.05606528682885,0.5051731798078678,1.3681402460104568
0.280813,-92.3017807006836,-24.79032325744629,3.132641138077063,-14.079272134275092,23.452492703992622,-47.34137643934111,-91.3782650785817,0.5098651225405527,1.4293615586600907
0.282983,-92.31866455078125,-25.22982406616211,3.1330487561906857,-16.726503192410295,32.9739130107738,-45.19378737937068,-75.89059020341537,0.514352213990038,1.4895905561933689
0.28508,-92.30040740966797,-25.660024642944336,3.133341679060401,-17.25277951324353,39.49431895098062,-43.63564022967777,-83.50852979491286,0.5187426040919827,1.5494938935112694
0.287201,-92.25208282470703,-26.059843063354492,3.1340128737340205,-17.08140323677874,42.86975062747673,-40.06486855801388,-90.93933404890957,0.5227169937632654,1.6070592793812677
0.321477,-92.22803497314453,-26.39885139465332,3.1347475139821763,-19.280278479679502,43.10672404073033,-36.17217982548353,-73.63426516854807,0.5262169720885829,1.6618935691206131
0.324882,-92.25088500976562,-26.700490951538086,3.1353453686868624,-18.54236874741342,39.36922745142642,-33.020993504722696,-91.612633427729,0.5293447940340799,1.7146094414861892
0.327023,-92.27876281738281,-27.004064559936523,3.1353431060988957,-15.703953864220392,30.361785709877875,-33.042935487431365,-91.29744597985491,0.5325757016684093,1.7681695471861316
0.329001,-92.36689758300781,-27.37258529663086,3.1345763791515227,-14.592968954204458,17.38973505138604,-37.132371234098514,-84.780905186429,0.5364910818126009,1.8262333244169764
0.361334,-92.55159759521484,-27.835811614990234,3.1334456809515925,-14.294150739337338,5.8750781414797935,-43.20285212310908,-91.83343808952064,0.5412912400891222,1.8901023371989305
0.364563,-92.75556182861328,-28.368907928466797,3.1324621781483555,-12.405606848923398,-0.4638567161123719,-48.52528044893611,-91.87595680661137,0.5467155044613707,1.95819432707123
0.368386,-92.90605163574219,-28.935075759887695,3.131735297415379,-10.635902273652155,-1.1945404284016983,-52.47363522320206,-83.584932125065,0.5524167556497509,2.0283674930189903
0.371698,-92.99764251708984,-29.522369384765625,3.131161947585733,-9.19786997692944,2.0377843775523656,-55.5807019370192,-91.79498287827013,0.5581692607835276,2.099220917180394
0.399871,-93.03018188476562,-30.11913299560547,3.1309099532327456,-7.883032094718952,6.991379073104113,-56.94348860097682,-91.80316963357555,0.5636734913323427,2.168875826674782
0.402012,-93.00994110107422,-30.699918746948242,3.130925342052603,-5.538090268209705,10.348494743567189,-56.849081726268906,-92.1438233690633,0.5687437713385768,2.2361499855010982
0.404146,-92.94083404541016,-31.262907028198242,3.1309802856356836,-2.58331649575975,13.03793637077307,-56.51422828711444,-91.7934592800658,0.5734032848381172,2.30116179733626
0.40622,-92.84859466552734,-31.817241668701172,3.13103197234817,1.5819316826518965,9.325731971965725,-56.18314511238183,-91.3576428387581,0.5777103453780623,2.3642518477818095
0.440293,-92.816162109375,-32.3843879699707,3.130623014559217,4.3254175018306205,-0.4335694962179933,-58.33859913518153,-91.40455671728407,0.5819893049484708,2.427435955223466
0.443875,-92.9465103149414,-33.00754165649414,3.1298401013409602,3.148979102441866,-15.289071098560893,-62.590426044460315,-91.522209858818,0.5864360799025761,2.4919433327773137
0.445953,-93.32904052734375,-33.70512771606445,3.1286371152771673,-3.7430567901751157,-30.65095201367412,-69.2818052799709,-79.24025828714461,0.5911993667971231,2.5587188126154516
0.448066,-93.97173309326172,-34.4738883972168,3.1276046741008643,-13.855535627632984,-42.52370250827262,-75.31876360053505,-93.29588085222676,0.596060039372161,2.626405470872676
0.480491,-94.76956939697266,-35.2525749206543,3.127201371441085,-21.522259046432218,-49.48725112182987,-78.1485656151847,-92.90160974870061,0.6006094464082946,2.6924417951342905
0.484036,-95.5411605834961,-35.9798698425293,3.127571816820537,-22.85039957582495,-49.64627500118069,-76.75656623214692,-83.25587905713671,0.6044834241022393,2.754520119351484
0.487893,-96.11068725585938,-36.618919372558594,3.1286167639745788,-17.898952974767173,-42.72089348470547,-71.45881879488574,-95.5002557785416,0.6074903138280595,2.811393778384595
0.491373,-96.40511322021484,-37.14971923828125,3.130247910154424,-11.483007093952878,-29.73436794781509,-62.66658265370596,-95.37992284479246,0.6095853057962723,2.8627267432789125
0.521051,-96.46121215820312,-37.557621002197266,3.132292512366329,-7.079473999245291,-12.9970218300974,-51.40169167448192,-95.249655079854,0.6108540355139478,2.90899978156831
0.524548,-96.35294342041016,-37.84788131713867,3.1343781306569696,-5.637329501755405,3.998774376945339,-39.82930899391848,-95.3583100930293,0.6114958422693616,2.951413463351701
0.528508,-96.16287994384766,-38.04901123046875,3.1361928741718725,-6.5435239961132,17.97997780134374,-29.75160051509103,-95.24731432316771,0.6117383890831786,2.991358846844062
0.532566,-95.95211791992188,-38.19096374511719,3.1376292986356438,-8.02484645868228,27.614659720036652,-21.789257971277184,-5.45090123065575,0.6117670791165529,3.029975768221473
0.560132,-95.74238586425781,-38.29850387573242,3.1386213470947446,-9.002845878010774,33.219973990718096,-16.29954977494009,-95.50081468524455,0.6117164242094432,3.0680959532825973
0.562338,-95.53728485107422,-38.38663864135742,3.1393721932243146,-9.81547019583398,36.70001684454212,-12.154560684658641,-25.08070203887661,0.6116530159324858,3.1061328238159978
0.564411,-95.30326843261719,-38.452354431152344,3.140006428019209,-8.380513191785061,40.12882986449647,-8.661552424242638,-94.86658981539554,0.6116118443331156,3.1443054274557523
0.56648,-94.98228454589844,-38.493309020996094,3.1405878550498914,-5.382288957486659,44.250879764450424,-5.468199930640726,-94.16255192408207,0.6116156783029507,3.182758222538797
0.60038,-94.56700134277344,-38.51127243041992,3.141081939650445,-2.391769816902266,49.49128093344018,-2.767196500717306,-91.9492248580992,0.6116812656931893,3.221599266701018
0.603726,-94.08173370361328,-38.504844665527344,-3.14154428054433,-1.6042471913307976,56.04424297032587,0.2607542376332992,-91.14850592216838,0.6118282995739349,3.2609561752329808
0.606519,-93.58289337158203,-38.46139144897461,-3.140922940846843,-4.048679154116037,62.19543620475848,3.5909365245278844,-92.13634667288561,0.6120836720544494,3.301003033674404
0.608556,-93.12557983398438,-38.38452911376953,-3.1404178052531004,-7.715682214769884,66.15517007418167,6.268644313626506,-91.15385395855007,0.6124573078271348,3.341809007821748
0.640865,-92.71055603027344,-38.29726028442383,-3.1402344830457567,-7.930682909463545,65.15133034167573,7.214502570268213,-89.22150050207571,0.6129156369818477,3.383170602410634
0.645144,-92.31532287597656,-38.21907424926758,-3.1402779541012835,-4.8366499041300814,59.71550380015357,6.953815593989982,-88.92089743694969,0.6134180409753971,3.4248379250494216
0.647852,-91.9303207397461,-38.14907455444336,-3.140377274465442,-0.38774276886861586,53.33713847392633,6.401671639222614,-90.934113104204,0.6139481709750266,3.4667110222961446
0.650859,-91.55337524414062,-38.077545166015625,-3.140406939300939,2.854248115462765,47.66035993395905,6.2198118761555,-89.98050969988952,0.6145227709782054,3.5088968418660236
0.680116,-91.2187728881836,-38.006717681884766,-3.1405686342373813,3.630115343380724,42.33759351376811,5.35198853078119,-90.37280664372088,0.6151075865638588,3.5511829510165853
0.682286,-90.9601821899414,-37.95986557006836,-3.140957669263489,2.88624008120487,36.570738439026705,3.309306694150514,-87.71579857189882,0.6156291684030698,3.5931084958675354
0.684314,-90.76261901855469,-37.94765853881836,-3.1414474734874385,2.3681469673275424,31.95918937182544,0.7549822703442055,-89.56183463031883,0.6160449042696199,3.634401762811724
0.686359,-90.57910919189453,-37.9581184387207,3.1413653376646375,1.3657940816265455,30.09525123789647,-1.1797243607097656,-89.12380772178795,0.6163922637316838,3.6752915295907704
0.720722,-90.39057922363281,-37.98197555541992,3.1409578534391676,1.6507197984435644,28.33188251685406,-3.2876295947155976,-89.49364544251658,0.6166534871578562,3.7156619129333692
0.723926,-90.17359924316406,-38.01808166503906,3.1407143878751898,3.5596741083665013,27.859033643255955,-4.537619526511869,-88.48412673975217,0.6168973644437704,3.7559397204142937
0.726118,-89.91849517822266,-38.06032180786133,3.140386628263623,6.659771254465879,25.45781233864627,-6.213385521920165,-88.60919231253817,0.6170832795712495,3.795868664174762
0.728144,-89.6796875,-38.099327087402344,3.140494054285073,8.26117356528566,21.761845007043338,-5.644899485789894,-88.75885046522792,0.6174224833604404,3.8367724303942277
0.760882,-89.48295593261719,-38.087039947509766,3.141032645901785,9.390907344573279,18.26170602913384,-2.8711573159701893,-84.69024923675559,0.6181419048438876,3.8800864876464196
0.763826,-89.30025482177734,-38.012413024902344,-3.141385900466863,10.87800942784066,15.134199974225439,1.0578580978259882,-35.18769856512341,0.6193742861234459,3.9266687689376547
0.767123,-89.12796020507812,-37.892818450927734,-3.1407487888079495,11.868365513151351,11.879059028070653,4.309328137467009,-87.37590249311513,0.6210540734089968,3.9761396178715716
0.77053,-88.97522735595703,-37.75141143798828,-3.1402015594895314,12.425153996554329,9.567318324230014,7.091670155781995,-88.24370334914974,0.6231279306815182,4.02819202570554
0.8002849999999999,-88.80250549316406,-37.584712982177734,-3.1396347578204873,14.150250606356218,9.705310343579075,9.961803583706917,-87.20473577497792,0.6256010900789716,4.082883627079445
0.802435,-88.5645523071289,-37.3907356262207,-3.139149716269322,16.56487359589111,11.297491472132515,12.396404876564098,-87.4819040803118,0.6284081803633264,4.139828771283427
0.804552,-88.283203125,-37.177371978759766,-3.138714324466642,18.484100403604042,12.355131750957003,14.559362715940702,-87.3790537366976,0.6314992343462577,4.198734486710383
0.806617,-87.9825668334961,-36.938716888427734,-3.13818596167565,20.544348419562933,13.688154158059005,17.17330172451397,-50.13597342812851,0.6349225633834374,4.259922164525829
0.840826,-87.64029693603516,-36.647491455078125,-3.137269530293696,22.87580104934823,16.153050754979777,21.708349257916506,-87.32447345943463,0.63894307840893,4.325077166675775
0.843578,-87.246337890625,-36.26492691040039,-3.1358768533254375,25.498190709472095,18.870887186112693,28.57272181717788,-83.53972194814091,0.6439020346838353,4.396381185505036
0.845713,-86.81523132324219,-35.76382827758789,-3.1340040520915133,27.80710542254364,21.340003986166888,37.74753905188488,-85.69223393702572,0.650157413870161,4.47614245013528
0.847572,-86.35641479492188,-35.12645721435547,-3.131743721773593,30.753217021022138,23.40607132329863,48.73269280346188,-85.39414768160489,0.658013250212652,4.5663527207198555
0.881089,-85.8396224975586,-34.34837341308594,-3.129261162329627,36.31952749644822,25.282121090173327,60.65240767879339,-84.4586430176668,0.6676610725702683,4.668315968260164
0.883971,-85.28824615478516,-33.43256759643555,-3.1266035043428193,39.02757455895321,25.195434036774817,73.2523103577152,-83.98686034619197,0.6792689604306225,4.783200861125223
0.887165,-84.82118225097656,-32.37688446044922,-3.123752966098201,37.805602490019155,23.158560635703,86.7082201547472,-83.62665184992476,0.6930094694702144,4.912214753153963
0.890902,-84.45995330810547,-31.190387725830078,-3.121049987770016,36.68209784325459,18.70215590040399,99.42403114388414,-83.39923882476701,0.7086687138420049,5.054147756475448
0.920553,-84.19654846191406,-29.909364700317383,-3.1187142565806063,32.97538150144535,12.587026064789045,110.38709264859072,0.8426038738257526,0.7255796896681199,5.204929519820862
0.922876,-84.05919647216797,-28.564157485961914,-3.1167934633080763,28.46189175261067,5.203988576750769,119.46327341394628,-83.87096896567084,0.7426789093403318,5.357956602082646
0.924975,-84.02783966064453,-27.17938804626465,-3.1153528413210676,24.040730793428924,-3.9421905285400145,126.35901873961282,-41.82431767292527,0.7587215973300245,5.505419675658343
0.927109,-84.09545135498047,-25.78229522705078,-3.1144042662528073,19.81246803678668,-15.145923993935765,131.03448813216164,-83.85528264837257,0.7728169171008218,5.641655065668052
0.960693,-84.23637390136719,-24.394588470458984,-3.1139344509171916,17.329222990434314,-26.545651445112323,133.52328612230923,-81.64970011662805,0.7846694447659477,5.764684212333188
0.963999,-84.39167022705078,-23.032087326049805,-3.1139140408812604,16.32834243738628,-35.30084576287584,133.86821067539486,-25.413928092513313,0.7943695055112325,5.8749337267501724
0.96627,-84.53048706054688,-21.71333885192871,-3.1144461427078807,14.710840943805954,-38.7685123139238,131.5093775247743,-82.63700984171888,0.8020654548929634,5.973200510885259
0.968159,-84.64462280273438,-20.45960235595703,-3.1154576136566576,12.57223614391503,-36.229495357903694,126.77805084519309,-78.42594666355686,0.807919081190288,6.060375188446127
1.00087,-84.70140075683594,-19.270938873291016,-3.11658683448792,12.510478427213421,-29.90099041261755,121.3793600421883,-83.61376811693725,0.8121337251561439,6.137619630490634
1.004546,-84.66838836669922,-18.100370407104492,-3.1170403704401677,14.160692258049874,-21.56692336096222,119.13053391833994,-65.32443061064275,0.8149575555769631,6.2063901471943534
1.008513,-84.5679702758789,-16.887611389160156,-3.116940831807699,15.915742662456855,-15.100124160456245,119.47183847116548,-77.86693122731945,0.8165026315567843,6.267303439281004
1.013021,-84.48334503173828,-15.62232780456543,-3.1163915882617084,13.551902129401006,-11.649987289913119,122.01257321976183,-82.63396083294535,0.8168350527226659,0.03750916926539016
1.040518,-84.48877716064453,-14.306135177612305,-3.1157558575577076,9.044666272525115,-10.979003166229406,125.09990068687765,-83.5305576434951,0.8160274428753487,0.08375806695535656
1.04278,-84.56773376464844,-12.96613597869873,-3.1153295425722476,4.457442497166029,-12.401854513748123,127.28386733436756,-83.55619687199281,0.8142095487049041,0.12360841740690895
1.044896,-84.67779541015625,-11.644559860229492,-3.1154515984518585,2.164329213295896,-16.494674619149013,126.85693953010674,-76.12495078288532,0.8115844224557488,0.1582725574626041
1.046922,-84.75792694091797,-10.397005081176758,-3.1162778992662576,4.177224594956146,-24.410877527572133,122.96158702380009,-83.06514599525696,0.8084051096319994,0.18928969902859238
1.080947,-84.76227569580078,-9.256937026977539,-3.1175381581383785,8.87938167102633,-33.798163164338014,116.84369096157128,-65.01090329834487,0.8048928841524463,0.21801532657084893
1.083912,-84.6941909790039,-8.216164588928223,-3.11891358293376,13.879567648227674,-42.397091291628094,110.07177696555709,-84.2491522591573,0.8011955832009717,0.24535741099192354
1.087218,-84.58015441894531,-7.2443156242370605,-3.1200119546397094,17.930170354368716,-50.60925654207162,104.59815898735725,-83.83519022281773,0.7973579124361542,0.27158521759408455
1.08996,-84.43523406982422,-6.309130668640137,-3.1208298845452185,21.562299322894123,-58.43069057576081,100.46019816173174,-83.63902702497133,0.7933937956240795,0.2967774122843363
