Time [Sec],Roll Angle [Deg],Pitch Angle [Deg],Phase Angle,Angular Velocity X [deg/s],Angular Velocity Y [deg/s],Angular Velocity Z [deg/s],EKF Roll Angle [Deg],Step Frequency [Hz],Phase Variable
0.0,-99.88333129882812,-8.243613243103027,3.138303168089234,6.28664869227866,53.01042662026253,-18.825442522470013,-98.8943874245823,0.4,0.025132741228718346
0.005272,-99.56688690185547,-8.772988319396973,3.1387359312963197,9.884554144194073,55.184417776469644,-16.29696625588653,-29.553806191985085,0.4000599320447431,0.05064204660039599
0.036938,-99.40774536132812,-8.703544616699219,3.1390077677441637,13.449950456981163,55.98625807936704,-14.722623020124225,-99.14149409009885,0.40015968909733796,0.07640534551769537
0.041847,-99.12979888916016,-8.914234161376953,3.1391868478731433,15.634323500726698,56.159430695583545,-13.664327043139416,-72.03765685964717,0.40028727016370014,0.10234973578995601
0.046276,-98.84736633300781,-9.117634773254395,3.1393659381536563,17.17189129045036,57.0942991778507,-12.611105896707926,-97.88381090258768,0.4004301828160773,0.128398473413018
0.051143,-98.56465911865234,-9.306078910827637,3.1396455296333525,17.228390615264708,58.66597010210024,-10.99608290802267,-8.31879579932581,0.4005660920079148,0.15441218646249422
0.076244,-98.29023742675781,-9.459156036376953,3.140146246234336,17.520341928695025,58.635029345160085,-8.145616156039154,-77.2224784116395,0.4006517701159742,0.18011882773078444
0.078381,-98.00276184082031,-9.5429105758667,3.140990721950099,19.13070928968727,55.407061452844545,-3.379933624932796,-97.66075859131912,0.4006139696516891,0.20505501356186592
0.080469,-97.67546081542969,-9.527568817138672,-3.1410219114352738,23.004029313278757,50.137751508192714,3.194096984221443,-96.8437343320501,0.40036786961835064,0.22868003952796098
0.082562,-97.3003158569336,-9.409390449523926,-3.1397102749565344,26.553454936239063,45.307578330943095,10.49408022572601,-95.89638892550916,0.39985788951726553,0.2506315952083974
0.116488,-96.9024429321289,-9.187897682189941,-3.1381194660607763,29.91374579089255,39.97622977806004,19.28356550821757,-89.62996058745601,0.39900096443295,0.2703711882730199
0.118669,-96.48197174072266,-8.839536666870117,-3.1362376587538,33.29735661891975,34.71668017373216,29.602746787414357,-95.74980622466637,0.397712855491825,0.2873477310728526
0.120509,-96.03041076660156,-8.361052513122559,-3.1342109431950003,36.87320995132613,32.13354702586294,40.61592139006134,-18.752210702245822,0.39595267515752525,0.3012772275594203
0.122231,-95.55238342285156,-7.75191068649292,-3.1319080239521355,39.18880800450054,31.597879194920935,53.022567281512224,-92.32089069878312,0.3936588494515462,0.3117431358952643
0.156987,-95.07195281982422,-6.993668556213379,-3.1293871500443413,40.77156774086759,31.26663209564824,66.48938489064874,-94.13967155648034,0.39080058407278456,0.3185184398525607
0.161338,-94.5855484008789,-6.076709270477295,-3.126639390144335,42.57682771963698,31.269972058152376,81.04304952127436,-93.77989482155576,0.3873635025026015,0.3214773443100417
0.165703,-94.09268951416016,-5.003465175628662,-3.1239327022060452,43.73126629315254,30.199531151049637,95.21670974723715,-3.5785841270153296,0.38342645418585064,0.3214773443100417
0.169882,-93.6368637084961,-3.8064708709716797,-3.1216039540094784,41.92417582368558,25.510280144303017,107.2535999328748,-92.98871778003077,0.3791596886125567,0.3214773443100417
0.196366,-93.31954193115234,-2.5150723457336426,-3.1195739154260234,32.61910858905373,15.495103754874327,117.74916913983988,-84.14136309419925,0.3746637958766763,0.3214773443100417
0.198526,-93.18742370605469,-1.135236382484436,-3.1178282418039283,22.85556149129019,0.8498962865979951,126.90793372245005,-92.13807142601576,0.37002204005557265,0.3214773443100417
0.200618,-93.16675567626953,0.30487722158432007,-3.116641534677715,12.471902372554835,-12.382712908599162,133.2182635343548,-91.34331651159536,0.36538787353583685,0.3214773443100417
0.20258,-93.22798156738281,1.7577638626098633,-3.1159963635651327,4.184373241696211,-24.011692244172615,136.75423880729207,-91.67721127418189,0.3609002816933514,0.3214773443100417
0.237196,-93.34990692138672,3.1938180923461914,-3.115913755636413,-5.077563482761125,-32.980726124470884,137.37521228587295,-90.52347218063296,0.35669559379108257,0.3214773443100417
0.241694,-93.57609558105469,4.585547924041748,-3.116287925244011,-15.561742495511556,-36.22550994252299,135.7006548070609,-92.43186449772595,0.35286944411961163,0.3214773443100417
0.245982,-93.88971710205078,5.926453590393066,-3.1168284737273,-23.416794720295552,-33.82348267559125,133.24576187595326,-48.08624144827987,0.34943457647992154,0.3220668754906839
0.248555,-94.21177673339844,7.246415138244629,-3.1170235950885874,-26.325464929291332,-27.17618548098393,132.64892628589922,-93.81856715604341,0.3462647172212561,0.32410568433840214
0.277104,-94.47798156738281,8.605439186096191,-3.1165514948046384,-24.46134067270748,-19.287538970767226,135.58088060977556,-93.65013166133295,0.3431505447736455,0.3262952156079443
0.280798,-94.7132797241211,10.01156234741211,-3.116282108119154,-24.97399588878842,-13.341849906761018,137.38134579574762,-93.80930828151612,0.340143846527791,0.3289643579771931
0.284172,-95.0077133178711,11.393536567687988,-3.1165032968886224,-27.165849697222406,-6.175774231481843,136.6036058153366,-78.1482815789664,0.33736545061622775,0.3328790497964403
0.288341,-95.349853515625,12.757501602172852,-3.1162747894261633,-27.78179103393228,2.326837556340482,138.3447029970429,-94.47264032814508,0.33466046699838925,0.33708043289729506
0.31651,-95.69524383544922,14.147244453430176,-3.116173296662314,-26.8831208467189,9.628348625785017,139.40267197872117,-94.31465910290072,0.33205655334015016,0.34174689815006426
0.318646,-96.05389404296875,15.547602653503418,-3.1158588802875435,-27.913427562258644,13.428201427116552,141.65664806520374,-94.80311993294168,0.329478834144946,0.3464143393477181
0.320782,-96.4505844116211,16.964826583862305,-3.115904186251774,-29.620679449080228,12.550683481989054,141.99113608923759,-95.389289472818,0.3270268870827694,0.35171006728992993
0.32272,-96.84251403808594,18.329967498779297,-3.1167752386125294,-30.683569582055515,6.5580979122547145,137.7318574435743,-89.33976330824876,0.32493886990122856,0.35913837373344537
0.35704,-97.17845153808594,19.6453857421875,-3.1172347677684646,-30.176192394655704,-3.705959471471838,135.64946936942084,-88.74188555466687,0.32305953620486066,0.3677466831960883
0.36143,-97.41952514648438,20.981372833251953,-3.117688707392592,-27.97692612342496,-16.566847520561247,133.45073585294534,-2.8726261154483073,0.3213747648084167,0.3774593816242613
0.363969,-97.56621551513672,22.31244468688965,-3.1181462094060226,-26.34436747781934,-29.16891366190266,131.09274964578185,-97.12846853017727,0.31987329052491864,0.38821791247050363
0.366024,-97.64281463623047,23.606769561767578,-3.1191002884244794,-24.889721599714214,-41.91416618145693,125.85523764681102,-96.45208816763126,0.3187073292509108,0.4009901933167708
0.397297,-97.62306213378906,24.844989776611328,-3.1199343334417526,-22.843909188566148,-56.097938502485924,121.16236493225699,-96.71808852322931,0.31780990255436065,0.415376467167134
0.401473,-97.50857543945312,26.051156997680664,-3.1208519135964004,-21.327996513606006,-66.66707909209579,115.89160357240654,-93.07668452596133,0.31718589753509613,0.43142431310054213
0.405714,-97.36685943603516,27.20613670349121,-3.12168354079422,-21.741678873518875,-73.03357354954554,111.08184583058609,-39.68988309396255,0.31676762557785576,0.44872561059477517
0.409982,-97.2291030883789,28.319292068481445,-3.1224750171126767,-22.563101328766706,-77.33739185878648,106.51383580424907,-94.03812015058254,0.3165004051344578,0.4669497119392487
0.436639,-97.08454895019531,29.3903751373291,-3.1231789034855697,-22.669334676022498,-77.5313077595123,102.43870588879851,-96.31729367912875,0.3163101048769661,0.4856403271099962
0.43987199999999993,-96.9738998413086,30.40959358215332,-3.123949411465194,-23.681541390261707,-72.27292270243791,98.0394698368525,-95.79374068855668,0.3161850229442577,0.504728764182963
0.443598,-96.9765625,31.377246856689453,-3.1244477879088612,-25.888139869566462,-60.79200308505011,95.27217088329765,-95.95724276405252,0.31596372323596916,0.5232047880124975
0.448663,-97.11621856689453,32.28911590576172,-3.125337245535268,-27.161761829004156,-46.547073250192824,90.45873849970373,-95.24922982494618,0.3157930742419153,0.5419851549947531
0.476617,-97.34953308105469,33.099185943603516,-3.1264190175972923,-26.286128162313936,-30.215814322030948,84.64074921374102,-96.4649216948466,0.3157242071148728,0.5613943141158309
0.479828,-97.68022918701172,33.816131591796875,-3.1275522572260805,-27.298036055776958,-14.88136856926637,78.58455708047411,-70.56225243751447,0.31573922151277284,0.5813261893527633
0.481968,-98.120849609375,34.45308303833008,-3.1286915381781295,-28.42006367413351,-2.0102258449118335,72.53294117395112,-96.71248494264555,0.3158030539349691,0.6015657406651224
0.48410999999999993,-98.63220977783203,35.015296936035156,-3.1298656433176104,-30.45442356559076,7.42321778337817,66.27482815825113,-95.08603486581286,0.3159076207708208,0.6220652445562305
0.519688,-99.1906967163086,35.504817962646484,-3.13109380810543,-33.34278079199492,11.990330493612976,59.669318060985944,-98.21469488633117,0.31606349634359493,0.642893700877366
0.527582,-99.72847747802734,35.93438720703125,-3.1322854758194087,-35.30789110300471,9.963836418758643,53.18294353831871,-98.81507901783414,0.3162401339078531,0.6638624025894277
0.53009,-100.18284606933594,36.32456970214844,-3.133373569647486,-36.965683882498936,4.105911870492513,47.17905016352659,-67.5558680325178,0.3163822876484851,0.6846255345130302
0.532009,-100.56195068359375,36.68347930908203,-3.134374631703653,-38.2722239386415,-3.314234675636678,41.58934287509863,-99.92215739318189,0.3164577540020646,0.7049785890090758
0.557303,-100.88427734375,37.01409912109375,-3.1352761526727635,-40.43222686742843,-11.249196058285001,36.511397755517635,-98.60595036123695,0.3164363993898891,0.7247280411265025
0.5611,-101.16554260253906,37.311241149902344,-3.1362689550376097,-42.55038805735986,-19.27811330971261,30.85835753801073,-96.13056880553712,0.3164138386982593,0.7444685734733678
0.565301,-101.3974838256836,37.56462860107422,-3.137192100598901,-43.470759463113666,-25.674570099503917,25.565828365275436,-96.83140279645457,0.3163704797419571,0.764077008939167
0.5678949999999999,-101.55736541748047,37.77338409423828,-3.13817195384535,-40.716253453874245,-30.325274933669572,19.904474100001337,-100.13915931711699,0.3163755781371719,0.7839871866004713
0.5971900000000001,-101.58699035644531,37.92588424682617,-3.1393343511561396,-37.55127015098998,-38.51253389930465,13.14448476050433,-100.5941272186134,0.3165716610117739,0.8050976754781793
0.599254,-101.4161148071289,38.03057861328125,-3.1406337318343036,-33.99050812155474,-54.06882931895312,5.572023074893151,-93.1968712811095,0.3170495165626279,0.8279909145456458
0.601101,-100.92110443115234,38.1233024597168,3.1415278856723288,-26.402169661217865,-76.92544265937549,-0.37451098489900864,-100.17489280551558,0.31761218435142363,0.8514470691701772
0.602903,-100.08881378173828,38.256717681884766,3.141244174638668,-19.398324639104835,-98.42454224187948,-1.9984106848647691,-99.08170528742988,0.317787046697975,0.8725019237977881
0.637636,-99.24363708496094,38.46219253540039,-3.141238719552463,-20.40754997577133,-103.80411534539742,2.0125545125319846,-98.22468437743639,0.3170156689440492,0.8876223634542836
0.641951,-98.76874542236328,38.7238655090332,-3.1402833600102396,-27.609362908335306,-92.5455730270069,7.409338838984703,-97.81350520300055,0.31533329149592765,0.8969703561236656
0.646401,-98.73316192626953,38.977516174316406,-3.1396910115152026,-37.08533513637922,-73.42266210580449,10.75758977767875,-97.4571178294886,0.3131753188658613,0.9032243892410551
0.649628,-98.99943542480469,39.17184829711914,-3.139661444402035,-42.61921245853149,-52.846245948088345,10.95431459370075,-95.48764127929822,0.3110294380507046,0.9094188080529964
0.676783,-99.34590148925781,39.29753494262695,-3.1399670622072997,-44.08147399756118,-40.56724263184666,9.253038268629279,-97.48311883215423,0.3091390389380909,0.9170836360765219
0.678929,-99.57447052001953,39.388179779052734,-3.1403686321175255,-40.15897490439831,-36.367567631975504,6.98328700648494,-20.825949892992238,0.3075415919771971,0.9264703594761493
0.680955,-99.61272430419922,39.458534240722656,-3.140817884488125,-32.503883297755614,-35.13105750539307,4.421909291782683,-99.20981561798186,0.3062393252336216,0.9376113843274642
0.683,-99.55758666992188,39.49428176879883,-3.1415062672486993,-31.039586362353262,-36.533954455251596,0.4927675194868607,-96.52920426564565,0.30537976774729586,0.951452209646591
0.717555,-99.5378646850586,39.47523498535156,3.140299933779281,-46.8856798782962,-55.249939781177574,-7.3725138740745795,-85.74297036140787,0.3054361503009211,0.9709940483773079
0.721115,-99.41063690185547,39.37147903442383,3.1379135255625488,-64.1422928352114,-91.2159674220372,-20.955708515157998,-98.65296366013577,0.3070955409128103,1.0006114264073245
0.723233,-98.69131469726562,39.07255935668945,3.1343341342530513,-41.84926913905805,-118.35141423971659,-41.04471383596557,-97.83404442378382,0.31118483597102403,1.0456006069394521
0.725065,-97.37935638427734,38.474796295166016,3.131063934371695,-11.596412993610832,-114.22413582995298,-58.746381919198804,-95.8652313080554,0.31748488605484193,1.1047373089524946
0.757818,-96.50613403320312,37.664642333984375,3.128918299222646,0.8404114483575218,-67.0654430452476,-70.08525409241784,-78.83892866250247,0.3254786361581826,1.174911685864184
0.762123,-96.42866516113281,36.78923797607422,3.1282686544659386,4.865960807179546,-26.5486635585363,-73.6188592897131,-95.88329082616195,0.334568751766129,1.2524769925376955
0.766367,-96.50044250488281,36.0078010559082,3.128488070195509,-3.7274532230162216,-22.782283806779706,-72.46028162156053,-95.60390860728829,0.3445119823434617,1.3359737274604746
0.769921,-96.6217041015625,35.36228561401367,3.1295022003870616,-16.88723632660091,-14.450381925091271,-66.93620220577263,-95.55307918682041,0.3548279836564623,1.4224374015952432
0.797683,-96.92027282714844,34.70320129394531,3.1292524350448505,-5.259683646790346,15.996328649379251,-68.53022492408104,-90.3629649943215,0.3664211836361794,1.517574125105861
0.801474,-97.37602233886719,33.79258728027344,3.127438978974834,-6.542330847442564,53.619570211200944,-78.9719517498189,-91.09725834871249,0.38017867876490247,1.6270379383348703
0.805937,-98.03780364990234,32.6380500793457,3.125273222740717,-8.923077806241487,61.495444267669725,-91.67686858722966,-97.31523994983118,0.3955631786231681,1.7475889326878176
0.810384,-98.5357894897461,31.439577102661133,3.124433909975995,-13.845543914650902,62.71395684578917,-96.88236748956065,-97.41607557576651,0.41040754643097865,1.865712813912086
0.836927,-98.99742889404297,30.345787048339844,3.1249316033195953,-14.033045413972445,60.76365096980539,-94.51246943248464,-97.30411131649443,0.423304591977889,1.9725340076553664
0.839027,-99.28373718261719,29.357419967651367,3.125099739395379,-11.243549199388694,47.305015927294555,-93.82909534564652,-95.35663125109288,0.4350073107672835,2.0726613703347154
0.841155,-99.31307220458984,28.416330337524414,3.1253023476072816,-7.824865349973477,25.50272424753369,-92.70362360440099,-98.46229233469185,0.445976005173743,2.168912025303612
0.843262,-99.21571350097656,27.548500061035156,3.1258063134296825,-8.642649021940981,8.973394102309678,-89.74714207121512,-98.2937759811704,0.4563006161561318,2.261804968161125
0.877781,-99.23492431640625,26.720088958740234,3.126231062611659,-14.40759591258302,4.899588389784457,-87.34891921965108,-98.28470324134636,0.46614386327416846,2.352322127099003
0.881378,-99.44429016113281,25.862943649291992,3.1264511584736083,-17.415983468366402,13.517516395798223,-86.27886763333103,-98.30401141618374,0.47550497915655365,2.440428435597573
0.883448,-99.76312255859375,24.920204162597656,3.1259785118904766,-19.035701358332396,26.57698664547705,-89.25777950775122,-98.81379828231067,0.48450066209040465,2.5268268374208636
0.885267,-100.1065444946289,23.851234436035156,3.124978217954883,-17.726886849196212,36.595637893645986,-95.30389711199236,-98.52083966915004,0.4930210207351751,2.610803904083238
0.916989,-100.39203643798828,22.69552993774414,3.1240898625997358,-16.325448144725485,40.20141428480619,-100.68703557425704,-97.76557238289675,0.5006606904853896,2.68978278914563
0.921714,-100.62297058105469,21.525344848632812,3.123653542273899,-14.052079443641977,42.13774900884271,-103.43494362075823,-99.54488358647386,0.5070967660003631,2.7616792832006114
0.926288,-100.81497192382812,20.369447708129883,3.1235115070930966,-11.61823800932996,43.98264799046027,-104.45301063730531,-98.79437795540932,0.5123149350645488,2.8263278358896
0.929933,-100.97444152832031,19.223865509033203,3.1235721498659927,-7.696536340752692,48.00664369468953,-104.26727730320515,-99.38794619234974,0.5164402039164974,2.88443736125479
0.956313,-101.11286926269531,18.08064079284668,3.123808562945567,-4.006788323275879,56.595316292940836,-103.04015868673149,-91.64710137914186,0.5196262935994048,2.9369050481506407
0.958457,-101.25260162353516,16.9134464263916,3.1236873420348994,-0.7801932989835159,64.76657895553974,-103.88602297392421,-99.69401902625495,0.5221152402403786,2.985192644047241
0.960497,-101.37110137939453,15.699958801269531,3.1234699672378468,1.8484683957891255,70.74304229062508,-105.27055696019916,-100.47155435260257,0.5240112746400147,3.0299112475902703
0.962579,-101.45635986328125,14.474931716918945,3.123471216730356,4.8191104052283125,75.08504135732639,-105.35182938113314,-99.86653842515541,0.525346749320385,3.0712268818962296
0.997372,-101.5007095336914,13.27818775177002,3.123831786074717,7.818163226850402,78.74658965815433,-103.3002932714606,-92.01503211318946,0.5261569670317812,3.1093261396811345
1.00023,-101.51863098144531,12.13481616973877,3.1244378605532424,9.568558857338019,80.32245773364885,-99.79217150995865,-94.48774406755076,0.5265084300213403,3.1445938640183924
1.002318,-101.5195541381836,11.059536933898926,3.125291332585757,10.930023025917599,79.85872203995082,-94.8273479834114,-100.43625186930865,0.5264781601991727,3.177485173432661
1.004128,-101.49755859375,10.055060386657715,3.1260891991022355,11.701124916229004,76.74843147684544,-90.16573021449936,-97.53708131299513,0.5261416355361485,3.208450325021587
1.036995,-101.4576416015625,9.096091270446777,3.1266382054073993,11.736664098027873,71.31914825654815,-86.93810383164232,-99.31984115655575,0.5255446538807522,3.2377578325947076
1.041307,-101.399169921875,8.168342590332031,3.1270385158499407,11.819118141688268,62.99521037543195,-84.56179222693568,-99.39174450626628,0.5247149882084866,3.2655658339081604
1.045605,-101.31465911865234,7.254473686218262,3.1271044828345858,12.49601037900404,57.39136801051665,-84.10830181699268,-100.26641621370666,0.5236457954012553,3.2918167124149074
1.048346,-101.23564910888672,6.327480792999268,3.127166258878506,10.818272593359728,54.260371728942374,-83.68431099407496,-100.1463424560756,0.5223555347246244,3.3166114011673833
1.076879,-101.18452453613281,5.398749828338623,3.1270882702512703,9.82384486153006,50.580091634315664,-84.09427943862664,-98.33924426435489,0.520841939381431,3.3399217673550723
1.080835,-101.13744354248047,4.450037956237793,3.1267892890701225,8.00438577324986,48.92020198674624,-85.78804340938474,-99.07172049434591,0.5190842129517799,3.3616031106870903
1.084078,-101.11993408203125,3.4720072746276855,3.1264970739602065,5.440452714024373,47.054969531969554,-87.46658971867205,-97.72529061934893,0.5171016598979328,3.3817613854685296
