Time [Sec],Roll Angle [Deg],Pitch Angle [Deg],Phase Angle,Angular Velocity X [deg/s],Angular Velocity Y [deg/s],Angular Velocity Z [deg/s],EKF Roll Angle [Deg],Step Frequency [Hz],Phase Variable
0.0,-97.92101287841797,-2.9976584911346436,3.1229378646601083,-4.659748858400397,-16.825493124051288,-104.67410386073863,-96.95149789942374,0.4,0.025132741228718346
0.005003,-98.09877014160156,-4.993381500244141,3.123630185257333,-9.529542255477967,-11.698177689602144,-100.97152661356641,-96.93366173208221,0.400374658088344,0.052619528653335926
0.039463,-98.25826263427734,-4.893659591674805,3.124693033376428,-9.126604636903172,-3.221047630025844,-95.15026566699126,-93.75984677604048,0.40105628459004,0.08205859596445371
0.043353,-98.33946990966797,-5.736507892608643,3.1257980753246764,-8.639445663220245,5.6169802337838215,-89.0009507345804,-97.07638257299637,0.40196818254371125,0.11298732933548972
0.047055,-98.43171691894531,-6.504103660583496,3.127131025994769,-10.071435803848438,6.331714280422404,-81.56524480407852,-16.731264997113314,0.4030119603904909,0.14480198475145825
0.050701,-98.53086853027344,-7.162524700164795,3.128559252580425,-7.860618828957555,2.4260253500239957,-73.5829666456247,-83.46977336021158,0.40409230763819737,0.17691199498633087
0.079336,-98.61652374267578,-7.7338385581970215,3.12990563859465,-9.731688534153664,2.229973307635242,-66.0382713865369,-98.28605498835361,0.4051424640830158,0.2089001910316202
0.082425,-98.74211883544922,-8.239494323730469,3.131381974001714,-10.714095133044108,6.608056050278304,-57.768995509348315,-95.12612509285329,0.40607453416222933,0.24021241183500583
0.085333,-98.83482360839844,-8.678152084350586,3.132757285304151,-9.997746600440463,13.030178983423228,-50.03438684038833,-95.8952887069434,0.40684958812217303,0.2705966349550746
0.088246,-98.87139892578125,-9.078740119934082,3.1337702346955796,-7.562856732090848,19.535459469713057,-44.31423318409688,-97.76624032964456,0.40750875548107757,0.30030141916272896
0.119419,-98.88468170166016,-9.482234954833984,3.1343146472777046,-8.538748184286748,28.15454348524385,-41.23554590628114,-97.95378810077924,0.40815411194163526,0.32996084364345557
0.121654,-98.89806365966797,-9.926584243774414,3.134460082746226,-7.765125954171606,40.709201283556204,-40.41698188520096,-97.55640828702268,0.40890231182173314,0.3603070013290861
0.123781,-98.83462524414062,-10.418149948120117,3.134470109275629,-5.113814284894145,53.732592766491734,-40.33427512454128,-88.02902410480209,0.40981240890479065,0.39171739992656107
0.125842,-98.70003509521484,-10.914713859558105,3.13471396639804,-2.0616001799711423,61.92241305306556,-38.90024617244583,-77.59580450007046,0.41082636055616245,0.42383751910795553
0.159402,-98.52716064453125,-11.355661392211914,3.135337024160176,1.2212567133402032,63.44646731351636,-35.314680311039695,-97.58666516921164,0.411816167742524,0.45586964260272883
0.161982,-98.33984375,-11.703229904174805,3.1363457427086807,3.457771314487908,61.21060488871268,-29.563770312915683,-63.41853707282625,0.4126231896392937,0.4868154836712726
0.164654,-98.16017150878906,-11.95553207397461,3.1375213814389573,4.0268558459442,60.73357081670065,-22.897626918841006,-97.7877281698213,0.413152652096103,0.516068074026032
0.167214,-97.97229766845703,-12.098225593566895,3.139327455442166,5.740406874727829,60.275210481879434,-12.715483140056769,-95.5559426444771,0.41309396533306897,0.5416584809515358
0.199673,-97.7353286743164,-12.067852020263672,-3.1414614821425833,9.400954552842368,58.45631061533753,0.734536739394007,-66.09045489534488,0.4121278228338252,0.561543487930299
0.203105,-97.43392944335938,-11.859475135803223,-3.138848493288043,13.23649680013451,61.58570521755144,15.319458610178279,-89.67447201905073,0.41011259250163007,0.5747761771275617
0.205665,-97.07379150390625,-11.479458808898926,-3.1356888311851714,16.065494560009384,70.1976653457779,32.83696088772587,-92.0620185605364,0.4067801430300951,0.5796059137260502
0.208106,-96.66667175292969,-10.89177417755127,-3.132242321124018,19.61263377714503,76.98022077651899,51.78918879666425,-92.94867306417427,0.40204034580526693,0.5796059137260502
0.239317,-96.22826385498047,-10.11467170715332,-3.129225709762926,23.710443335734617,74.63810109879743,68.18829199385186,-95.28988636887087,0.39620285328985344,0.5796059137260502
0.241442,-95.85686492919922,-9.193998336791992,-3.1267084267729683,22.09708093679132,58.689903084951965,81.75309549682137,-93.93692941713849,0.3895915650931678,0.5796059137260502
0.243448,-95.72998809814453,-8.130781173706055,-3.1243502503641674,10.728476950115216,32.55347730131908,94.58264962620652,-94.12486068725966,0.3823247373127206,0.5796059137260502
0.245504,-95.91189575195312,-6.934407711029053,-3.122636126395715,-3.793005963575419,-2.263128966857188,104.18517159919243,-93.55692908826379,0.3747295524590529,0.5796059137260502
0.279501,-96.24903869628906,-5.659257888793945,-3.12162179187596,-11.178803274925205,-40.712121189426384,110.14723006531823,-95.11573038955083,0.36714632835350236,0.5796059137260502
0.282073,-96.6015396118164,-4.329412937164307,-3.120823155652818,-18.17007733387083,-71.52956589430873,114.97280652525642,-95.6783983662865,0.35967329288919214,0.5796059137260502
0.284721,-96.97339630126953,-2.904602289199829,-3.119355531688294,-22.432564460896714,-90.99775653843363,123.57351733191987,-94.11730246866902,0.3519736610138402,0.5796059137260502
0.287152,-97.28128051757812,-1.3647959232330322,-3.1180700112592263,-22.259634316395747,-98.89024503005847,131.1348509318258,-96.32479084957221,0.344153895166461,0.5796059137260502
0.319463,-97.5916519165039,0.1906684935092926,-3.1173159592932884,-30.323430782593668,-91.01221604890655,135.77198930275253,-93.15234958551102,0.33647730170034706,0.5796059137260502
0.322771,-97.97109985351562,1.7361719608306885,-3.116542084609868,-31.316383193562615,-79.08921243748968,140.64654504922888,-97.15767130114214,0.32891316329211157,0.5796059137260502
0.325824,-98.2879638671875,3.3308331966400146,-3.115537710751932,-33.17969295008794,-72.23630605829746,146.7612445829261,-93.37719719987832,0.3213455069263627,0.5796059137260502
0.328543,-98.5469741821289,4.990159034729004,-3.1147940359330732,-27.562400235149592,-71.05790035098434,151.34995691263745,-96.47393292166196,0.31390759649134076,0.5796059137260502
0.35936,-98.64585876464844,6.666851043701172,-3.114425810401289,-20.619316575892995,-72.9662552050859,153.5845489222555,-91.18432218533992,0.30679555431604466,0.5796059137260502
0.361501,-98.6696548461914,8.320813179016113,-3.114344609644072,-15.28342082457,-67.16954195838778,154.0809943918887,-97.69195885354135,0.3001380808111477,0.5796059137260502
0.363569,-98.65890502929688,9.936491012573242,-3.1142966496756803,-9.39298884472284,-58.89499317515994,154.33551456112005,-37.612400271629525,0.29392444437433213,0.5796059137260502
0.365553,-98.60344696044922,11.571224212646484,-3.113708406114263,-5.151190787579747,-54.63085143480762,157.57460883159354,-98.29932387788301,0.2878634163150637,0.5796059137260502
0.399564,-98.52568817138672,13.299537658691406,-3.1126097201735257,-2.184483820876134,-53.55244994222723,163.65756164602857,-97.71486389395712,0.2816964198797556,0.5796059137260502
0.402195,-98.44264221191406,15.101744651794434,-3.111861722975575,-1.8505208676347142,-54.36213130229181,167.7422196753713,-95.89844943708792,0.2756050607103605,0.5796059137260502
0.404749,-98.35713958740234,16.92993927001953,-3.111056519249034,-0.2388744736791038,-54.34849141451929,172.1383343308666,-92.4616008040699,0.26955689506979963,0.5796059137260502
0.407252,-98.23410034179688,18.790969848632812,-3.110566964223275,-0.11287375855250022,-59.123039531168324,174.68102251356558,-95.14908825758084,0.2637104593496945,0.5796059137260502
0.43905,-98.04279327392578,20.626996994018555,-3.1108520105753414,3.5020849414927158,-64.14188985405038,172.73807958150707,-72.56051319034991,0.25844263706156784,0.5796059137260502
0.441994,-97.7427749633789,22.39900779724121,-3.111161073071499,7.028169887068387,-68.09827693078026,170.47704107942275,-95.92769007227318,0.25374065309875277,0.5796059137260502
0.4450549999999999,-97.3990478515625,24.1181697845459,-3.111873672231224,9.209831345713425,-68.53671360379255,165.8972353163891,-96.04318288040085,0.2497670216583963,0.5796059137260502
0.448199,-97.0344009399414,25.753822326660156,-3.1127427946375716,10.763549971503231,-69.95562393216017,160.43996881106227,-96.10517646290826,0.2465472447796199,0.5796059137260502
0.478494,-96.64401245117188,27.324857711791992,-3.113484587260919,13.459644202960705,-64.90715107884778,155.6836299787405,-95.63058102117883,0.24396745400580322,0.5796059137260502
0.480647,-96.28480529785156,28.844009399414062,-3.1140163371596077,15.670545701442567,-53.944519876058884,152.16919712244547,-94.00560862150598,0.24187459554134777,0.5817850233965699
0.482731,-96.02875518798828,30.328922271728516,-3.1143789456234456,14.464598963848653,-41.10227867029044,149.7679484970791,-76.61354970937171,0.24014681637234497,0.5861264957566945
0.484775,-95.95811462402344,31.772748947143555,-3.1149385903902496,9.769740371793452,-24.105228269761355,146.57861898489833,-95.4429655701566,0.23883777775502238,0.5929904330317692
0.518968,-96.14103698730469,33.139984130859375,-3.115785164815707,2.462357474096821,-4.900423380410491,142.19149285835076,-95.21049779645205,0.23803504716286564,0.602953348129404
0.522277,-96.60266876220703,34.41027069091797,-3.1169346942721057,-6.11207802171642,16.66381059356604,136.50762799711958,-94.21802423336388,0.23782925340395025,0.616616490916353
0.525537,-97.31192779541016,35.554405212402344,-3.1185870760218406,-13.24083567780476,35.54017559139309,128.29167540678128,-96.44442411350542,0.23841335143306952,0.6352297397769198
0.528871,-98.17552947998047,36.54806900024414,-3.1204603611979085,-16.51317930915787,54.219776499610404,118.88776167448101,-97.1703896877825,0.2398319341835217,0.6591229107391762
0.559488,-99.18378448486328,37.385162353515625,-3.1225176740996456,-19.672105941795625,72.17100261964298,108.4126762048368,-97.93919955994399,0.2420774407933168,0.6883009297275591
0.562632,-100.36392974853516,38.04469680786133,-3.1248325780170982,-22.940412931349258,89.10334893061723,96.3866596803578,-99.1771173274059,0.2451308127953047,0.7226960060197248
0.566561,-101.67926025390625,38.50617599487305,-3.12742295770433,-27.593455397758348,100.52464099655081,82.55523291294767,-88.95491763866019,0.2489279418512314,0.7619560947263128
0.569716,-103.04003143310547,38.74922180175781,-3.1306683364227577,-34.58114189984242,102.54925250051517,64.49710067202605,-102.28401627453817,0.2536043027936398,0.806979140958583
0.598603,-104.20529174804688,38.79943084716797,-3.133987847672942,-36.972295505615506,85.09125483101673,45.405547149303175,-101.11793811553333,0.25886436418483433,0.855963509698104
0.600643,-104.58843231201172,38.77079772949219,-3.138327052775756,-29.198341531941658,26.36782747007104,19.569103274017248,-103.52957666075143,0.26513377632186946,0.9116203156181618
0.602695,-103.65048217773438,38.799095153808594,3.1415001268845923,-14.044032627026057,-63.11661698792893,-0.5494916002135819,-99.44158899194959,0.27127560937368045,0.9668694372866767
0.604748,-101.72554016113281,38.967552185058594,3.1397103975611462,-2.2435961199348324,-131.91906593157,-10.970637038269787,-100.86914061448427,0.27603425768155904,1.0138136556469033
0.638907,-99.7750473022461,39.15899658203125,3.140027735585932,12.31120936572559,-141.7292666364593,-8.94615701544696,-39.94154043018093,0.2782613574431264,1.0451506800678367
0.642324,-98.42967224121094,39.30661392211914,3.140549789708905,18.58030191051638,-114.78627405902337,-5.881342278722341,-97.70267725516848,0.2786975358500828,1.0653749465521591
0.645711,-97.56057739257812,39.34273910522461,3.1400031781211033,19.955171179115755,-100.60982028569005,-8.884872289345374,-96.77524981041441,0.2787890504672823,1.0834610324743432
0.648817,-96.53556060791016,39.250118255615234,3.1383265549360906,18.30746317393105,-113.6422720145596,-18.065117816895242,-90.87223225769941,0.27956035293245163,1.1058241014478725
0.679154,-95.26432037353516,39.050071716308594,3.1368895379079698,8.803388132547122,-131.90731800619758,-25.670939853960057,-89.30296230401873,0.28069534241910005,1.1305207457343363
0.682706,-94.160400390625,38.86151123046875,3.1372430372702933,0.4828300211313153,-127.79197876710315,-23.466299931399803,-93.40461779416145,0.2808112870771091,1.1488858560187993
0.686494,-93.38925170898438,38.82858657836914,3.1394230926085207,10.332486487699972,-97.20522370143797,-11.60892675394394,-92.54759551013352,0.27880554039998356,1.1539272714976905
0.689597,-93.07341766357422,39.0130500793457,-3.1404324709611036,4.907562208753624,-52.57116690945525,6.186924942188712,-38.15273721058399,0.27425083503592973,1.1539272714976905
0.718763,-93.80475616455078,39.42436218261719,-3.1367535520626006,-34.36003160093618,-6.166266608157185,26.008518538593353,-93.51806273669824,0.26713041975773766,1.1539272714976905
0.720848,-95.34906768798828,39.76308822631836,-3.137918701410711,-50.6912802838143,28.695376646745675,20.071255366702,-93.47514090572159,0.26137245433568546,1.1539272714976905
0.722893,-96.34925079345703,39.47393798828125,3.1387578147058712,-27.449092519460958,35.63079854130081,-15.649501888609757,-88.1132863063778,0.2612158130834416,1.1693655811309283
0.725008,-96.49695587158203,38.52660369873047,3.131785601919674,-11.406629357332857,36.22109081012999,-54.22363555649146,-94.37227917027158,0.2664584294544677,1.2187185848722266
0.759367,-96.69733428955078,37.297943115234375,3.1276394929390055,-0.09011688891912677,59.61461507592331,-77.31039895118657,-46.480689972830234,0.27435640347135454,1.285085096060841
0.762158,-97.13887023925781,36.10712432861328,3.1260385494657967,-7.787756078439151,53.8709006820899,-86.57563935276808,-94.11823633831766,0.28335451154251157,1.3588601977181674
0.764255,-97.2419662475586,35.158905029296875,3.126269349000283,-12.98710951806442,3.847429764655727,-85.38130564431049,-93.35292401814347,0.29273317281526323,1.4355917534646043
0.76618,-96.64488983154297,34.562347412109375,3.128500999618661,-12.671859575601543,-51.277249042898866,-72.49713732232192,-95.80808525722503,0.30140505983465693,1.5084717942739494
0.799271,-95.84854125976562,34.06895446777344,3.128081952409489,-6.020562451461535,-61.58933204800072,-74.20146076553685,-79.01610506219964,0.31192805077774644,1.5935275347897802
0.802119,-95.29589080810547,33.24826431274414,3.1258378476367126,-0.3447156453465767,-54.944100985617325,-86.02918323803205,-94.76052280752616,0.3260251790776424,1.701701421652551
0.805307,-95.11624908447266,32.153961181640625,3.1232718153743644,-14.441946641466306,-39.26333219853454,-99.85533709940293,-93.27681441654822,0.34344611006492215,1.8316451254187291
0.808901,-95.46115112304688,30.9942684173584,3.1230553363003635,-24.296106443853823,-12.343178919909482,-101.40186268222307,-94.53963026190569,0.3604021823791879,1.9597626253768774
0.838993,-96.0118179321289,29.966123580932617,3.1239765160200035,-27.88559454139084,10.979000604908467,-96.91766590719128,-84.69425852168148,0.3743278670821041,2.0699050198646596
0.842781,-96.52658081054688,28.993324279785156,3.1242442056538904,-26.267507359089187,23.592117138553316,-95.956357762647,-95.73827657745672,0.385789201340837,2.165438420424986
0.847001,-96.86627960205078,27.981409072875977,3.124059329770903,-22.19104726429777,22.367479588295662,-97.32042850216858,-94.77016805666001,0.39582145662223384,2.252712789822266
0.849394,-97.05268859863281,26.954343795776367,3.123807713353155,-21.97172818250137,14.468572426398309,-98.90731367279433,-73.95102650806294,0.4051106711831875,2.3359488418720415
0.878898,-97.23834991455078,25.899084091186523,3.1232591707470188,-21.583039192308867,15.344590291229341,-102.15364111359885,-64.96994957713225,0.4142905567862843,2.4190816183846073
0.880994,-97.45084381103516,24.73514747619629,3.1219312099060903,-18.573572466636623,19.668135894340555,-109.79425271920113,-96.9367203747422,0.4239754313582583,2.50596412339014
0.883035,-97.62957000732422,23.4340763092041,3.120537602658914,-14.191457991392552,26.442221890510822,-117.79435767138868,-94.62575382376156,0.43397153702206803,2.5954106696351573
0.885125,-97.78252410888672,22.091365814208984,3.120067461058541,-10.854730435601963,30.609875256005665,-120.61407832682339,-96.91475239947812,0.44335130836250897,2.6816127469576316
0.919529,-97.9024429321289,20.80398941040039,3.12013847552808,-7.790687937140379,31.10726329174433,-120.36346502579728,-96.47524023682105,0.4514721107787207,2.7604938376479033
0.922566,-98.00233459472656,19.534751892089844,3.1199760291105436,-5.826461281854466,35.54061955368913,-121.39885340207951,-95.66929808814157,0.4582250886885844,2.8312908785613295
0.924689,-98.1224365234375,18.21149253845215,3.119560588992922,-3.5470380449585663,42.90805774343675,-123.88434558066882,-92.7127184939745,0.4636637412609283,2.8942540719410266
0.92667,-98.26513671875,16.83778953552246,3.119369217677365,-2.091496771741934,55.72285524912009,-125.14249374654185,-97.01415137578111,0.467833537426878,2.9495865260104814
0.959447,-98.44376373291016,15.460941314697266,3.119640049565364,-0.647881275620409,68.28187241567021,-123.84162957759955,-97.55140298314414,0.4708470716316858,2.997915967934477
0.963198,-98.61820983886719,14.124195098876953,3.120242871085701,0.8288972435207612,78.12690708532658,-120.65329727303761,-97.68798619618292,0.4728988696230895,3.0403919889514124
0.96614,-98.76912689208984,12.812704086303711,3.1205057668785297,1.9270296585094353,83.41559769174833,-119.34952344350889,-84.34040517925284,0.4742435356451426,3.0785538870382165
0.96983,-98.8812484741211,11.48344612121582,3.1204608212792126,3.068577530627061,83.70008873105769,-119.7397594715484,-96.95995508497292,0.47504297558818487,3.1133745164942166
0.999034,-98.9429702758789,10.132737159729004,3.1201766765222736,4.405516410887829,80.42855106202664,-121.4260512153545,-95.53835984639085,0.4753923976285284,3.145417830369053
1.001114,-98.95268249511719,8.760445594787598,3.1198521331164466,6.63132138213866,77.89272721944353,-123.27884931074719,-96.52414902199706,0.47534577518054044,3.174994678168115
1.003243,-98.89702606201172,7.382555961608887,3.119634377912157,10.341340120411601,72.7819425503331,-124.44398396050298,-10.853789207306253,0.47494670373406855,3.2023540942235704
1.005442,-98.77433776855469,6.025119304656982,3.119491138593331,12.890353912055666,63.26376658340769,-125.100638347308,-97.54051962259041,0.47423683715189174,3.227735652450332
1.039432,-98.62753295898438,4.705840110778809,3.1195519586040152,13.810802157437632,50.15371366028303,-124.5708478941468,-97.28388436582209,0.4732652420843412,3.251428119870531
1.042323,-98.48532104492188,3.4242825508117676,3.1194701809798175,13.090776421739582,35.0652725384021,-124.85290738611164,-97.50907656609924,0.4720508857827458,3.273534226353297
1.044363,-98.34333038330078,2.1518805027008057,3.1192422370537938,13.650171476084564,18.237076366986777,-125.95792271079299,-96.90168943338627,0.47060030518240603,3.2940797915362756
1.046301,-98.19734954833984,0.8788731694221497,3.1188777092066395,12.584130918354607,2.0289179382360425,-127.82293318442164,-97.28934438433342,0.468913660085839,3.3130509770778627
1.07946,-98.10197448730469,-0.38394486904144287,3.1187764072707798,9.86290756716701,-14.454565415957905,-128.2684800843599,-96.42007711297201,0.46704623435178416,3.3307803093372716
1.082747,-98.07767486572266,-1.596710443496704,3.119106167182826,5.676189009264546,-26.59986094900742,-126.38269217527608,-92.94556953398695,0.46508632778305814,3.347811233555735
1.086184,-98.12008666992188,-2.7459638118743896,3.119747241107625,2.0293012826032095,-34.389493621921034,-122.83154022200304,-86.11815809764778,0.4631050389878056,3.364584664721091
