Time [Sec],Roll Angle [Deg],Pitch Angle [Deg],Phase Angle,Angular Velocity X [deg/s],Angular Velocity Y [deg/s],Angular Velocity Z [deg/s],EKF Roll Angle [Deg],Step Frequency [Hz],Phase Variable
0.0,-96.13739776611328,9.503317832946777,-3.1325910193821747,26.88007287480178,0.22715805789031385,49.58474524204263,-95.18554234268643,0.4,0.025132741228718346
0.00405,-95.59608459472656,10.5925874710083,-3.130743918671303,28.20212429054945,-4.637724486534869,59.423588345216395,-92.98801114298634,0.3997761560141461,0.04885902921441894
0.040538,-95.52030944824219,10.998964309692383,-3.1290726813631284,28.631901991241453,-10.522237680579389,68.52426899912479,-94.67378569793274,0.3993004168884898,0.0709885488263329
0.044314,-95.2065200805664,11.866856575012207,-3.1276691152454084,28.169942146727642,-15.878277367312043,75.95686036336515,-92.84358699573632,0.39857270901637665,0.09150501054179713
0.048031,-94.90470123291016,12.774667739868164,-3.126612939674917,26.998006336105806,-19.231227476155055,81.46036724937296,-94.05910699369558,0.39761817388044324,0.1105505512918582
0.051853,-94.61044311523438,13.705699920654297,-3.1257736843587436,26.384909773185246,-22.000486694001708,85.75829110536017,-93.71581746325336,0.39646645247631607,0.12829715896741384
0.079538,-94.32489776611328,14.666438102722168,-3.1249858748824177,23.65276921838303,-26.209945939858905,89.75823429842723,-53.362979734554834,0.3951361320870574,0.14484923133367036
0.082154,-94.07225036621094,15.683477401733398,-3.123933625436031,19.959134396381657,-32.77845007220096,95.19104872652541,-93.567247813379,0.39360632599344403,0.16006431155809714
0.086627,-93.8144760131836,16.770458221435547,-3.122969755425983,17.701635639834674,-41.51378390740537,100.1128830424366,-90.49965862269902,0.39189879364815317,0.17406658425758118
0.09202799999999998,-93.55799865722656,17.881704330444336,-3.1224505032216046,12.248685814063293,-48.958034404558944,102.62361960019827,-90.72889044155556,0.39008982761303707,0.18732424286606772
0.119863,-93.36039733886719,18.979244232177734,-3.12221715470612,7.33405478640553,-53.24133141043856,103.65555190076047,-92.19725266159938,0.3882331888358297,0.20016870411376292
0.12203,-93.1904067993164,20.0611572265625,-3.1221333121546717,3.511685626144815,-53.95923210353109,103.9146551269249,-92.33967788486602,0.3863610440194984,0.2127990819894054
0.124082,-93.04386138916016,21.14534568786621,-3.121830088573522,0.610277562423198,-52.53456051059857,105.36835843892457,-88.7802751857621,0.3844384556757391,0.22499488350664099
0.12751,-92.89801788330078,22.260242462158203,-3.121380300567059,-0.0800000313968024,-50.917608847246434,107.59822395763698,-66.55268790412151,0.3824423798386943,0.2366081496974709
0.161046,-92.73358154296875,23.40538215637207,-3.120856990514152,-0.10580584011275267,-47.6971097667883,110.18940648344305,-91.94951995947916,0.3803639050771633,0.24757827103292865
0.165892,-92.57514190673828,24.570396423339844,-3.1204468355315997,-0.43746035616737333,-44.64855728359066,112.17762673950956,-91.07087432199758,0.378231349760076,0.2580779997954808
0.169172,-92.42950439453125,25.733774185180664,-3.120290503253714,-1.31801605460866,-42.13429634821727,112.82943169200388,-91.53907534554179,0.3761020540736369,0.26846421701907824
0.171973,-92.30919647216797,26.867929458618164,-3.1205154506514097,-2.4116326473388976,-37.828534850157475,111.492306048758,-91.31178874294633,0.37405883962361836,0.2792575110088597
0.19992,-92.25021362304688,27.95551109313965,-3.120929733452414,-4.833975031296376,-31.02175956861953,109.23040011264906,-91.13969108740757,0.3721347895446653,0.2906711578739419
0.203554,-92.29069519042969,29.018342971801758,-3.1211507688435582,-8.41859661904976,-23.056563713279907,108.10903331509472,-78.13668540566803,0.3702676032552688,0.30232119883421305
0.206351,-92.44698333740234,30.07325553894043,-3.121464828345869,-12.803380844485662,-13.168288823535471,106.62790679357745,-91.84248961557807,0.3684675755766506,0.3142758910163836
0.209587,-92.64659881591797,31.13674545288086,-3.1212094382839948,-11.513376676323693,-7.19078303082805,108.21437532266383,0.6430152927682651,0.3665755800008147,0.32553963278339554
0.240012,-92.69718170166016,32.23158264160156,-3.121214306634663,-3.393801043382038,-5.775118322976657,108.2475905325976,-92.49173350302232,0.3646744309732931,0.3366269841292324
0.242136,-92.5685043334961,33.31910705566406,-3.1211240338874173,0.12807868011966095,-13.1063287624797,108.57631387697197,-85.21774484588094,0.3627458055158412,0.34742224325787274
0.244224,-92.42076873779297,34.41238021850586,-3.1211671714933633,-4.594952561291779,-21.208597976725013,108.17450750847846,-76.12515706574702,0.36082827619383506,0.3581660423503394
0.247453,-92.33087921142578,35.50861358642578,-3.1210205863715763,-9.507779565235014,-30.157122506493028,108.84508182081197,-82.49932001121076,0.358857233102724,0.3684531225944128
0.281292,-92.1688232421875,36.588111877441406,-3.121558874570397,-10.491769060465607,-39.25175161279679,105.81023069708937,-91.53010008723894,0.35704733258064564,0.37962884717069517
0.286336,-91.89289093017578,37.59169006347656,-3.1222341479909885,-9.518383433921459,-45.305519028908336,101.93671430555925,-91.11416378128685,0.3554264690639913,0.39187860687829285
0.28941,-91.55972290039062,38.55425262451172,-3.12273072004876,-8.678701321701247,-49.47416106428554,98.96116971439987,-90.55906420523809,0.353914880416781,0.4047131189816977
0.292155,-91.22582244873047,39.50159454345703,-3.123046916216768,-8.163692251677592,-48.528623826534826,96.94698790929813,-88.36852733524499,0.35243493974193474,0.4176515052442753
0.319771,-90.9637680053711,40.43022918701172,-3.123438453397123,-7.140015088500992,-41.84287608199492,94.627182459595,-0.3050529002204334,0.3509971329663266,0.43076163918844373
0.323371,-90.8447494506836,41.3455810546875,-3.123531228999659,-9.93583008184065,-31.888052951619756,94.0203133216502,-90.66584234640322,0.34947703479717207,0.4432643809937031
0.325779,-90.8797378540039,42.265201568603516,-3.1237413569849517,-9.508524055854545,-20.886276227150233,92.96203015127008,-89.77016353217539,0.3479110349647022,0.45538320355762535
0.327865,-90.99446105957031,43.158329010009766,-3.124130812078994,-8.777335229731754,-8.665447339616836,91.04828627791339,-89.93091032154604,0.3463611099914991,0.4675046327697237
0.359055,-91.25599670410156,44.006431579589844,-3.1248084898295696,-9.15899168640008,5.180782582158828,87.7656427212919,-90.32276262390438,0.34491941519707253,0.48020870759271506
0.361829,-91.67980194091797,44.79123306274414,-3.1257298642871256,-9.369014880736096,17.89988529558888,83.33209179895574,-88.52652278508575,0.34365102378513807,0.49391109532676775
0.364346,-92.20467376708984,45.50362777709961,-3.1268526262015373,-9.566319409063901,27.738082945886074,77.87630061448965,-91.38808463733115,0.3426035825390716,0.5089220585137892
0.366862,-92.7728271484375,46.13991165161133,-3.128070471762233,-9.446463249508517,33.509830143620505,71.88142308940195,-89.67008077782857,0.34178219700214957,0.5252875589366369
0.399646,-93.31561279296875,46.70659255981445,-3.129287280234868,-9.226925601658674,34.35953982731594,65.79511665208445,-79.27179732609578,0.3411568944113839,0.5428334756703918
0.40287,-93.81166076660156,47.20895767211914,-3.130526743624332,-10.762053306301352,32.538672866293076,59.481829368269096,-91.3989357232542,0.34071417184855823,0.5614872876325747
0.40572700000000006,-94.24732971191406,47.64743423461914,-3.1317618380990853,-11.386061950194657,26.828347852217274,53.087860474882966,-91.28343769513711,0.34043211223896985,0.5811227576229275
0.40821,-94.4893798828125,48.028526306152344,-3.1330137609115587,-9.718194641674657,15.26734938945296,46.44591473349035,-93.26266440169682,0.3403092504960081,0.6017407749818556
0.439078,-94.45503997802734,48.36135482788086,-3.1341318441159487,-6.394820959485091,1.5854076086091984,40.377718542757144,-93.5036389949825,0.34027438816763717,0.6229039893385996
0.441314,-94.2130355834961,48.65388107299805,-3.135163044374248,-4.372566297671218,-10.91314477470485,34.70756870137936,-93.28752538486255,0.340286415119404,0.644359627266675
0.443397,-93.91605377197266,48.897518157958984,-3.136197286001424,-6.674514644676174,-19.366646221734314,29.032719689852605,-91.81634033247612,0.34035298746540976,0.6661587396900732
0.445625,-93.64842987060547,49.082061767578125,-3.137266282713266,-7.077280654748071,-24.254228846505182,23.213979083081192,-91.13916444914067,0.34049959629247195,0.6884649190191467
0.479346,-93.33525848388672,49.2056884765625,-3.1383204233970887,-4.2690236180615875,-27.03136668755944,17.499021493200832,-92.13757301606064,0.3407291030717636,0.7113011732479445
0.482002,-93.00101470947266,49.27851104736328,-3.139211517607019,-2.8092388763796734,-26.461595722091563,12.688063345633752,-90.93071242751725,0.3409672909819595,0.734206392967125
0.48452,-92.76172637939453,49.311275482177734,-3.1400343358053004,-3.298129729904023,-22.939057138799008,8.282240430006919,-88.74659374520927,0.34120805501571233,0.757142764735765
0.486873,-92.6110610961914,49.29728698730469,-3.1409248661876195,-4.239820717378374,-20.540991381585872,3.543429357199272,-88.82404622317875,0.34153082504600457,0.7806095230273559
0.519417,-92.46890258789062,49.23614501953125,3.141444320969341,-5.316878797126386,-19.845959869381836,-0.7858777772811119,-91.68177556395523,0.341927701886871,0.8045621883814272
0.52238,-92.33673095703125,49.139373779296875,3.1407036838506417,-6.958898962279764,-18.750141394417916,-4.703100069062469,-83.00054058972647,0.3423973516126411,0.8289970357640395
0.524945,-92.2481689453125,49.00897979736328,3.1400125381681994,-8.681559755868896,-17.329757452736867,-8.351597585933812,-90.91001649660198,0.34296084494695317,0.8540510288915801
0.527317,-92.20663452148438,48.838897705078125,3.1392267341184428,-11.887098160723758,-16.392655498611116,-12.499296553768463,-87.37199720837637,0.3437350289526599,0.8804642358803758
0.559241,-92.21564483642578,48.62893295288086,3.138571142097716,-14.948073904248005,-15.436799552571806,-15.964407760293195,-90.60901963898039,0.3446922865467691,0.9080763715656518
0.561407,-92.25801086425781,48.39448928833008,3.1379922157868876,-16.756646524764854,-14.024484625621481,-19.031977197687446,-91.36229209865107,0.3458522724133369,0.9370224328222946
0.563456,-92.28079986572266,48.136695861816406,3.1374742270067384,-16.342979532777616,-14.793226685574647,-21.775481479721268,-91.40956262559132,0.3472520229157142,0.9675478637773703
0.565487,-92.23234558105469,47.85890197753906,3.137010914673551,-15.258237917100162,-16.129256083458746,-24.212479315203478,-84.36095476239598,0.34893862208238163,0.9999635669632008
0.599456,-92.1472396850586,47.57526779174805,3.136816620376834,-16.028645689437166,-19.195102605634858,-25.215965585419873,-91.40138660737475,0.3508162299865045,1.0336853855927848
0.602085,-92.02030181884766,47.31919479370117,3.1370233618010714,-16.512480922315238,-23.781033340806697,-24.0911871083751,-4.111851319090519,0.3526931133832361,1.0675206255921315
0.604628,-91.85472869873047,47.101707458496094,3.1373220497837906,-18.869994138878717,-28.191385525626895,-22.475847369667083,-91.38355679443166,0.35458677725428445,1.1015792284829689
0.606845,-91.68394470214844,46.870670318603516,3.136940558527513,-23.288310324271148,-35.04070776305215,-24.438111199340266,-89.5054504833969,0.3570748126948703,1.1394913604966426
0.639598,-91.48025512695312,46.54655838012695,3.135796925721369,-31.67547014389228,-45.838745067222064,-30.37825671106136,-90.39389747884508,0.36081949618796855,1.1854555729673986
0.64264,-91.20677947998047,46.124305725097656,3.134658560800956,-32.66766781895794,-53.95632585803926,-36.2365099621813,-90.0182069121088,0.36593288952780934,1.240254928440038
0.644777,-90.8642578125,45.692405700683594,3.134553276233053,-26.252798546711567,-51.28037726953873,-36.648578689902756,-85.22118264762032,0.3716954061407452,1.2994541297037638
0.646847,-90.66493225097656,45.38323974609375,3.135999385257908,-18.69343204128659,-34.54220982157335,-29.055754502828474,-89.89223349935796,0.37684037289112166,1.3551352203417535
0.679287,-90.80821990966797,45.26011276245117,3.1381295240698965,-17.3900407023514,-12.717932616647865,-18.01848470033698,-89.32178376418021,0.3806470739946039,1.4027310077249933
0.6813170000000001,-91.15986633300781,45.21749496459961,3.139069779133741,-16.132958045988893,-2.050381167372573,-13.177191975118582,-90.1734099976155,0.38390071064544945,1.447090970749925
0.683129,-91.26629638671875,45.05323791503906,3.1378811490130274,-12.404937490384738,-11.282329305948734,-19.408190847360917,-89.00401647670138,0.3882175903714997,1.4983359190629386
0.685413,-91.02376556396484,44.65346145629883,3.135391571632462,-10.08893474850201,-21.237257450482385,-32.34077838037571,-80.67806832840587,0.39449173891567274,1.5621499876088571
0.719342,-90.85560607910156,44.010292053222656,3.1320533243637314,-6.816616303471466,-11.363081778732148,-49.65984658706151,-89.27890529837227,0.4031448171861239,1.6413055288372176
0.721597,-91.10459899902344,43.14369201660156,3.128783162206432,-8.235912964414014,11.701836963449978,-66.8680369178559,-86.98056777130316,0.41378456370789185,1.7334873637749995
0.724432,-91.64554595947266,42.17268753051758,3.127013489431574,-9.053876782620877,25.544750401496778,-76.55920108589024,-33.025209810523286,0.4249322594961489,1.8295292530709555
0.727386,-92.0319595336914,41.290771484375,3.127372703929665,-5.524044411068396,24.31685485100503,-74.98745844465441,-91.13967767543176,0.4349150916200974,1.9189525184903178
0.759428,-92.20066833496094,40.620365142822266,3.1292035330537695,-4.08787077957357,21.849254352946577,-65.45146934437359,-87.39691006505461,0.44294350595198617,1.996723054595772
0.761762,-92.33087921142578,40.105628967285156,3.130663045101637,-1.038449581690868,19.64031311875651,-57.821786041443346,-91.19613318076436,0.4497305577284501,2.0671983198817987
0.763932,-92.42686462402344,39.57252502441406,3.1306724279480345,-3.0283701279738997,15.248923246619558,-57.83220207992761,-91.01616853170205,0.4565905373564207,2.138558247412906
0.765915,-92.543212890625,38.91292953491211,3.1297303356611637,-4.089234682973457,13.533289010139075,-62.900940104507434,-56.638795191914966,0.4642291961613462,2.215241785739723
0.799997,-92.73628997802734,38.143150329589844,3.12873464001144,-5.443951905313535,20.708575195514012,-68.3235092488506,-92.35658031266995,0.4725253727124586,2.296536580996288
0.803115,-93.08487701416016,37.31877517700195,3.128017067751259,-7.783637474369633,29.31029174753275,-72.40807848573411,-92.25461033583306,0.48101069656999124,2.379541087975562
0.806283,-93.4887924194336,36.4686164855957,3.1274632610657704,-8.891384020945335,34.07585133523405,-75.68931502338658,-92.60836128283515,0.48923706881524903,2.4614517026112037
0.809578,-93.80928039550781,35.608192443847656,3.127134834447212,-8.64733197039067,30.351301369501908,-77.71439781040367,-92.92246254367141,0.4967709850448869,2.539528365995862
0.839456,-94.0071792602539,34.76294708251953,3.1270433206895123,-10.208680771257027,22.638141202083048,-78.37135955572134,-92.90262339698927,0.5033362150787615,2.6119919644256284
0.841454,-94.17569732666016,33.95566177368164,3.1274173355857116,-12.091729774483694,17.525689966815147,-76.49329659058878,-93.12599736492454,0.5087433693304068,2.6775916636847623
0.843716,-94.35018157958984,33.20490646362305,3.128024323922229,-12.35837609081276,14.70261227340338,-73.35308979891875,-93.40531434132458,0.5130620792128194,2.736692206796927
0.84578,-94.52033233642578,32.4937858581543,3.128548197318028,-13.657951915322855,12.063807107383035,-70.64777481208175,-93.05426441200342,0.5165198336112745,2.7906545596069456
0.880233,-94.70103454589844,31.78894805908203,3.1287775650211245,-13.815643054011877,11.915567242958018,-69.53808763800812,-93.77244745802975,0.5193686153580763,2.841007881515944
0.883329,-94.8978042602539,31.068883895874023,3.1288913193293677,-14.014634639064676,13.86359268953266,-69.06396322658252,-93.99716456461834,0.5217397475278307,2.888539036856606
0.886108,-95.09856414794922,30.348169326782227,3.1290583968599797,-13.597583288343698,13.433776569026573,-68.29956260562054,-93.3088946791249,0.5236872518190573,2.933557442363295
0.888705,-95.2732162475586,29.633377075195312,3.1291419898475965,-12.157133104654797,15.360542198035906,-67.96861261957673,-93.57932877065105,0.5252771404059455,2.9764512474343507
0.91857,-95.46022033691406,28.90789222717285,3.1291545362145805,-11.467491465479549,18.67162836990862,-68.03339013366514,-0.39747373067807246,0.5265488004877443,3.0174454594839957
0.920834,-95.66349029541016,28.178131103515625,3.1292631099222055,-10.389982166359493,21.519644791527394,-67.58306210130786,-95.18877292043356,0.5275051145771232,3.0565381949868065
0.922865,-95.8580551147461,27.45075035095215,3.129283756073592,-9.473405784463278,23.59752835592326,-67.60710436718631,-95.0350907588233,0.5281679410148002,3.093846980174959
0.924922,-96.03753662109375,26.719228744506836,3.129342513304529,-8.057288149692548,24.81295027344327,-67.41032661719824,-95.0842225002771,0.5285422171628066,3.129384397036015
0.958624,-96.19169616699219,25.9948673248291,3.1294873962491008,-5.923114861912493,26.672243878736634,-66.71991060532584,-94.83591669526145,0.5286372804899963,3.163190984467679
0.960741,-96.31856536865234,25.284343719482422,3.1297354547067835,-2.8355502591664434,28.889227660674393,-65.43876519251738,-95.25055952321262,0.5284727529798209,3.195372487569139
0.962668,-96.43659210205078,24.59442901611328,3.13007621133441,-2.1382472821765557,30.808630345758452,-63.63587528938998,-25.054462065614768,0.5280777692494524,3.2260956539655887
0.965234,-96.57587432861328,23.927566528320312,3.1304298432792477,-2.3615522062404835,30.808039534395245,-61.770748702545426,-95.26460416541809,0.5274824147184006,3.255535035931485
0.999645,-96.70802307128906,23.280960083007812,3.130770110870139,-2.1028139683098224,30.43149803564161,-59.96963464860224,-93.76424111654204,0.5267142324455847,3.2838511019412344
1.001965,-96.82878112792969,22.648338317871094,3.1310641900274603,-1.6818367529199671,30.972554885838758,-58.41281597070289,-94.44107380683761,0.5257947317820866,3.311168140146246
1.004029,-96.95263671875,22.023344039916992,3.131314573364791,-1.6297989290158152,32.043637830723476,-57.0965087440472,-96.06927620738199,0.5247417774939104,3.337588890566902
1.006074,-97.06944274902344,21.41072654724121,3.1315914163917355,-1.1473496909307281,30.806676911655828,-55.625429430799024,-95.56499186472713,0.5235821649160733,3.3632733281199463
1.040004,-97.1552505493164,20.8249568939209,3.131995604930726,0.002806794410706169,29.86837625933074,-53.424435121708264,-89.6870960141004,0.5223628947209645,3.388510065201576
1.042566,-97.23213195800781,20.27368927001953,3.1325069715174916,0.1850882814299872,29.71168147448689,-50.617644014372395,-92.9062421300872,0.5211298320708321,3.413583532726697
1.045203,-97.32074737548828,19.74578285217285,3.1328596887355435,0.18449059985697144,29.890086015607626,-48.69684455560307,-96.53596718555575,0.5198668897193456,3.4383917849400265
1.047678,-97.3976821899414,19.21014976501465,3.1328911621261457,1.1832178957485213,29.44932366318295,-48.55969094197463,-88.8067655376053,0.5185084038793193,3.4625203667016993
1.078781,-97.44688415527344,18.674365997314453,3.1331461211932417,1.6353776994638347,27.070372190362093,-47.160605237672975,-96.45609316474237,0.5171303971112544,3.4864409386724367
1.081057,-97.47650146484375,18.177841186523438,3.1334978200506103,2.1250607482102,23.193406553301113,-45.210569154161405,-66.89072275606439,0.5157758372934678,3.5104222494578776
1.083262,-97.49043273925781,17.71897315979004,3.133957387318398,1.9651681541743171,19.488409711615425,-42.64982536639149,-95.64288715223576,0.5144919719935762,3.534762637496007
