Time [Sec],Roll Angle [Deg],Pitch Angle [Deg],Phase Angle,Angular Velocity X [deg/s],Angular Velocity Y [deg/s],Angular Velocity Z [deg/s],EKF Roll Angle [Deg],Step Frequency [Hz],Phase Variable
0.0,-105.9849853515625,12.474349975585938,3.135489251714075,-9.966555687821954,-28.28246268311443,-37.06332143668427,-104.93562906095298,0.4,0.025132741228718346
0.003663,-106.04450988769531,11.945661544799805,3.13576785146831,-13.270329288414523,-31.9740484483648,-35.39133210900017,-95.62112054450968,0.40013121633589926,0.05108993901122082
0.038942,-106.16446685791016,12.03893756866455,3.1358271651698684,-16.508821648467404,-36.929818559167195,-35.07056251991427,-95.87608227990641,0.4003769439226858,0.0777748767683429
0.040883,-106.29359436035156,11.818538665771484,3.1357852846320284,-20.393314153993735,-36.283638267454386,-35.36828705074054,-105.35998419084034,0.4007295248147323,0.10514663316272635
0.042811,-106.4783706665039,11.575117111206055,3.135760329978578,-23.90084681167977,-35.937631129385295,-35.58201733024858,-105.26497692017008,0.4011789400349604,0.13314897089597635
0.044751,-106.70130157470703,11.312749862670898,3.1358770308215593,-26.015247982473106,-26.064423636949908,-34.94303605792096,-105.48040879429374,0.40169987066520324,0.16162889079375348
0.079263,-106.9255599975586,11.013566970825195,3.1359834042825043,-23.765429773647803,-17.48003698240278,-34.36477175222017,-105.65419356352244,0.4022822586679456,0.19052768978825743
0.081971,-107.08425903320312,10.695207595825195,3.136046779510741,-20.127886172657867,-8.760141082269893,-34.02692669020925,-105.8705196868665,0.40292505072125206,0.2198426111431789
0.084773,-107.20429229736328,10.34136962890625,3.1360341519655615,-15.681501324871268,2.01989312390834,-34.14263350984385,-105.45987486947905,0.40364032179824455,0.2496533194506518
0.087453,-107.30455780029297,9.958866119384766,3.135910374270921,-13.60106753859405,5.622376083228131,-34.935587736631064,-106.2861167737221,0.4044570208673276,0.28014626043498136
0.119232,-107.42127990722656,9.587810516357422,3.135877490284672,-14.20961604930103,5.881411861274511,-35.175989904848,-104.76676634054161,0.40536051988501703,0.31123589629697096
0.122671,-107.5599594116211,9.252585411071777,3.136113506157901,-14.576738717189215,3.5115663112777513,-33.76685357718267,-104.40533007474772,0.4062781289127458,0.3424709564842541
0.12581,-107.66471099853516,8.979386329650879,3.136602508121506,-12.113487342084769,0.24871528216921124,-30.783133249586793,-104.91551836247251,0.4071233183896811,0.3733086462896466
0.128749,-107.72748565673828,8.751581192016602,3.1370379813913987,-10.749151078959198,-0.4678898360955586,-28.113135463400646,-106.75900023965492,0.4079030317284743,0.40378804220692655
0.159101,-107.80816650390625,8.53377628326416,3.1374006054404546,-10.89456836770971,-0.263816323496007,-25.894235813400698,-102.60098391974006,0.4086382959280798,0.43403714677988675
0.161212,-107.91864013671875,8.324061393737793,3.1377176487122043,-11.984197837511951,0.8446069987769078,-23.96037020274914,-107.01404669737659,0.40934475965916994,0.46415149068438966
0.163379,-108.0598373413086,8.114052772521973,3.137871910847982,-13.776163706835558,2.054341396430711,-23.03661102316701,-107.03783487549468,0.4100926749300811,0.49457067072020844
0.165474,-108.21328735351562,7.898702144622803,3.1379530292904274,-14.30915154230198,2.0427512057394344,-22.566369574284554,-106.70178134089362,0.41091971045139153,0.5255339708532482
0.199362,-108.34940338134766,7.679704189300537,3.137902614754233,-14.037163164268316,2.0081308978273436,-22.907730476170745,-96.4187369705398,0.4118953044919411,0.5574826558659883
0.20222,-108.47743225097656,7.4391584396362305,3.1377169474721938,-14.00211319476875,2.877102141869039,-24.08879312707101,-107.46842387598394,0.4130977416608155,0.5909179366710663
0.204823,-108.61009216308594,7.175682544708252,3.137596079812626,-13.990397712794886,4.380664340705915,-24.8704109473833,-107.52154696965046,0.41450215574514115,0.6256978272192204
0.206846,-108.74185180664062,6.899721622467041,3.1374618087189643,-13.59269031157703,6.277900927499166,-25.7371653681525,-103.48488445429167,0.41612181171652957,0.6619183643690556
0.239521,-108.86322784423828,6.606025218963623,3.1373074683622124,-12.730828013800847,8.211809226833038,-26.728592939389237,-99.98193936818113,0.4179713805028387,0.6996852523255537
0.242182,-108.97152709960938,6.287045001983643,3.1370483973394423,-11.69524241580633,10.779132194320969,-28.372752661300122,-0.5651923110580243,0.4201171031625944,0.7394291417825831
0.245248,-109.08302307128906,5.9391093254089355,3.1368470232951773,-11.956308467583497,13.359156752344184,-29.660396999103853,-108.89502719155398,0.4225199822045634,0.7809236121728731
0.24787,-109.2072525024414,5.573535919189453,3.1365842200103193,-11.886384405955491,14.854114406930725,-31.33860521402725,-108.16547650875157,0.42521616527652445,0.8244119434778601
0.27922,-109.31664276123047,5.19587516784668,3.1364055382005414,-10.923156124480798,15.107176330774283,-32.489177900472576,-107.85316715266794,0.4281347522072989,0.8694670856194355
0.281334,-109.40576934814453,4.8236083984375,3.1363068809943604,-10.016511691411427,14.321920580955318,-33.13411509775645,-101.8879235093748,0.43119892399085863,0.9156203445941911
0.283482,-109.4880599975586,4.468122959136963,3.136365006323205,-9.503498744172708,12.665101957191462,-32.79439514881835,-108.05312893228943,0.43426585804442414,0.9619834870145526
0.285564,-109.5785140991211,4.133686065673828,3.136435844706938,-10.079732776142711,11.160023669802253,-32.37672566597749,-108.11746538633764,0.4373051113606689,1.0083654073827233
0.319329,-109.68387603759766,3.7987473011016846,3.1363724669109265,-10.551996814793133,10.166188456883086,-32.8061601496637,-90.53561344237136,0.4404156756454444,1.0553863496984215
0.322268,-109.79022216796875,3.4492385387420654,3.1362592567013716,-10.793298006659576,9.532131750947048,-33.55013850500734,-109.16056952242758,0.4436341972815559,1.1032810505759467
0.325219,-109.9030532836914,3.0870983600616455,3.1361040440935604,-11.68634609441239,9.226546526159739,-34.56201737016639,-107.29372132481909,0.4469982335149612,1.1522922723117177
0.327271,-110.02867889404297,2.7318625450134277,3.136244288996005,-12.315193927332647,8.484826402110436,-33.71736885664593,-105.60652700949932,0.45024349437704075,1.2007685750098651
0.359831,-110.1697006225586,2.390939235687256,3.136256375758453,-14.039266862532681,9.9475378798517,-33.684286835400975,-108.47715431797133,0.4535004277490682,1.2495221240046808
0.363061,-110.31685638427734,2.0229859352111816,3.1362817848190234,-13.336012656341596,13.71565420720477,-33.56867222332017,-109.32784629756543,0.4567705510956722,1.2985631872130543
0.36592,-110.43309020996094,1.6348978281021118,3.136401082862962,-12.437459436117752,19.365194806535687,-32.849180096151024,-93.31397880250775,0.45997698347164084,1.3474095361601717
0.368497,-110.5217056274414,1.2426828145980835,3.1365667255969165,-9.791948731879748,23.003433379273673,-31.826591494373396,-108.43751704045654,0.46308837916738915,1.3958602181224173
0.399505,-110.5597915649414,0.878031313419342,3.1367964789660543,-6.672787460589807,21.78720037678972,-30.382126013226173,-98.20421306826304,0.4660519579354868,1.4435776336938997
0.402781,-110.56936645507812,0.5675656199455261,3.1370456956085366,-4.540503573888907,16.52042443231996,-28.805895937705653,-108.9876519260382,0.4688566627864367,1.4904830221491883
0.405959,-110.5820541381836,0.3013681173324585,3.1372378252929454,-3.9926135463139873,11.565756543294876,-27.591865671229026,-109.61009614739801,0.47156465504070916,1.5369569722411192
0.408958,-110.60967254638672,0.05078587308526039,3.1374951743134365,-3.8914614329138604,10.210193658158186,-25.96778670547798,-80.44206320824057,0.47410830850477287,1.582568499432451
0.43940199999999996,-110.64679718017578,-0.19641442596912384,3.137711938799243,-4.346863868937637,10.431640343881046,-24.602281626230692,-108.2996557912381,0.47652289735269315,1.6275289121846728
0.441502,-110.69666290283203,-0.4483313262462616,3.1378729452933194,-5.075731711403092,12.222965029196319,-23.592178610255846,-108.89638177870488,0.4788534598454956,1.672113084868724
0.44398,-110.74478912353516,-0.7022753953933716,3.1382197224809185,-4.695332436428872,16.09246356194718,-21.402034056661652,-109.65515561274445,0.48089625051297336,1.7150355674081972
0.446156,-110.76675415039062,-0.9469447135925293,3.138698405992471,-3.357746395744244,22.526001448742488,-18.368299668868353,-77.13478875821012,0.48250972139566733,1.7553889065069108
0.479671,-110.76061248779297,-1.1765708923339844,3.1393753953992793,-1.7705581354740825,29.2951116521024,-14.07099992141656,-110.10306585033985,0.4834974206804216,1.7919117840612366
0.482542,-110.72669982910156,-1.365380048751831,3.1402613218371087,0.44457130346487067,35.66452601542233,-8.446203389901305,-98.73396697273954,0.4836710546158193,1.8233817971497392
0.485247,-110.64717864990234,-1.4975478649139404,3.141325536316491,4.046586554909075,41.56897866608824,-1.6934210739174262,-109.43959101958822,0.4828927233870403,1.8488813464476583
0.487354,-110.50646209716797,-1.5790835618972778,-3.1409584405033537,8.495275737766908,46.15267422185419,4.015554871075591,-105.72505065275186,0.48137230097202194,1.8696692953142022
0.519458,-110.29762268066406,-1.6233261823654175,-3.14015014948637,14.281407313893387,48.21398774732361,9.116038334257164,-109.36576070926284,0.47924244306748165,1.8865325171095209
0.521503,-110.00580596923828,-1.5879063606262207,-3.1391102559881054,21.287905010725325,44.59777482711162,15.646257548754003,-107.76409105087534,0.47632035737579326,1.8982842019937691
0.523513,-109.62504577636719,-1.4255632162094116,-3.1377773658389567,29.20038034340891,41.035537476815655,23.964138759623694,-108.63357656513014,0.47238185728129506,1.9034659667774334
0.525366,-109.15361785888672,-1.1351150274276733,-3.1361520336511317,37.52359763956767,37.27267356493433,34.026199275062645,-29.393319796845667,0.46722063363691196,1.9034659667774334
0.559443,-108.58927154541016,-0.7171305418014526,-3.1346378241802566,46.713890375386626,31.644054688804804,43.27160822238902,-108.20778037113084,0.4610299171237626,1.9034659667774334
0.561419,-107.9302749633789,-0.17603303492069244,-3.1329606016073805,55.70466304026576,24.17451200115467,53.38149713749098,-107.06041883068251,0.4537517293013099,1.9034659667774334
0.563404,-107.1773452758789,0.49525463581085205,-3.1313118308195307,65.66772679387454,18.2044997797404,63.134798951499505,-103.74822525254477,0.4455158342369993,1.9034659667774334
0.565763,-106.28060150146484,1.2684168815612793,-3.129586762661877,79.40379046009295,15.09860615091321,73.11254419672923,-105.22652048789955,0.43635550861496447,1.9034659667774334
0.599951,-105.1837158203125,2.1500132083892822,-3.1276354658392385,96.09257222526456,14.306291400587037,84.11961261025822,-104.211642413404,0.4261806224190134,1.9034659667774334
0.602641,-103.99765014648438,3.148725748062134,-3.125461616767127,102.8830643358212,18.449590872822554,96.1271603032215,-102.50799381405312,0.41491169369425723,1.9034659667774334
0.605303,-102.97550964355469,4.250247478485107,-3.1237844984609517,97.00381508319265,13.414553001607572,105.08032936162513,-9.846642231450438,0.4030847728391022,1.9034659667774334
0.607894,-102.11531066894531,5.461611747741699,-3.12216130810656,92.82521463200555,1.3491805002441355,113.70276700003839,-101.90299528534304,0.39078867093169706,1.9034659667774334
0.639581,-101.32356262207031,6.793457984924316,-3.120303849109952,83.95165142837844,-1.8382909870389834,123.60896601371223,-100.31000791479542,0.37786311558062613,1.9034659667774334
0.641678,-100.64240264892578,8.154265403747559,-3.1194643958463946,78.86792113857044,0.5415961683373116,127.62088252839433,-99.37917739224868,0.36523884012362096,1.9034659667774334
0.643882,-100.02210998535156,9.386433601379395,-3.120295968731195,70.13355719022817,4.68980126386163,122.0664497519349,-98.89007404358047,0.3543338122582383,1.9034659667774334
0.645907,-99.48600006103516,10.383525848388672,-3.12252849534337,66.02856568772631,9.363327040704768,108.6813075448934,-97.67734113445138,0.34620565120541413,1.9034659667774334
0.678777,-98.97584533691406,11.176523208618164,-3.1242894551827964,61.3670776924085,24.601467126172167,98.13447093801821,-93.83046377895937,0.34023301253843524,1.9034659667774334
0.681181,-98.57414245605469,11.929641723632812,-3.124770924827354,56.03378936580116,38.39916641946078,95.01610709131387,-92.36701337738089,0.3351475512372503,1.9034659667774334
0.683818,-98.27045440673828,12.792374610900879,-3.1241150466901857,48.37443230602179,40.457741039073014,98.41737737344015,-97.49781381634507,0.3299064222082882,1.9034659667774334
0.686154,-98.03138732910156,13.819723129272461,-3.1228162824862,41.99182201722539,33.89421269954131,105.47523040886776,-97.09078690857608,0.3239704657490164,1.9034659667774334
0.720112,-97.80313873291016,14.96683120727539,-3.1217366229396912,37.01779822586613,25.96679632804833,111.2820045242133,-96.12300358778809,0.31757651845239343,1.9034659667774334
0.72265,-97.555419921875,16.156801223754883,-3.1210043441339432,35.01625227072891,15.45693324269771,115.09490298685957,-96.12865970595875,0.3110565765919769,1.9034659667774334
0.725187,-97.26609802246094,17.345544815063477,-3.1209984967620503,31.844168986202423,2.496212587378458,114.78616477599665,-95.84305316546939,0.3050394738722103,1.9034659667774334
0.727759,-96.93871307373047,18.460094451904297,-3.121901795240187,31.22572267761445,-11.29027708482169,109.38069159514603,-95.96209960391603,0.3002567087949296,1.9034659667774334
0.759698,-96.51658630371094,19.511621475219727,-3.122345473220789,32.13512821465579,-25.57143082794214,106.44991889399608,-82.04765310776672,0.2962496107654411,1.9034659667774334
0.761829,-96.04631805419922,20.579378128051758,-3.1225263531054464,31.356418347382643,-33.87889941542215,104.93549520027501,-94.90983064468557,0.2927508229874809,1.9034659667774334
0.764002,-95.661376953125,21.619667053222656,-3.123030713371678,25.24375421005807,-34.317667352609185,101.74955346192256,-94.57818895844396,0.2899762086943342,1.9044266277142403
0.766086,-95.40653228759766,22.601842880249023,-3.1235619949155415,19.15305425355697,-35.0352299513378,98.57332425256988,-94.21281920352955,0.28787578215428034,1.9094490010779626
0.799799,-95.19644927978516,23.540124893188477,-3.1243228236251603,13.20067587303238,-36.14271780449868,94.20514507077992,-92.15023464207896,0.2865863422903961,1.9194349803179593
0.802163,-95.01969146728516,24.410757064819336,-3.125288117958099,8.783588267916901,-35.793872722829455,88.77346445408396,-94.0075305963549,0.28619912854416685,1.9350087955480872
0.804668,-94.8652572631836,25.205463409423828,-3.1263898984256646,5.288104490813591,-34.52463232974432,82.63910080576626,-92.52667899694256,0.2867082628482914,1.956190202321107
0.807031,-94.74191284179688,25.915685653686523,-3.127715355639884,2.0873128539884784,-31.80726205902226,75.33513556397557,-93.82040161583515,0.2881219892294018,1.9830873185930258
0.8393550000000001,-94.67900085449219,26.530193328857422,-3.129142281553884,-2.0260614250590963,-27.060558916072075,67.54311232485246,-90.10985256531315,0.29027624940965263,2.0147261729994352
0.842603,-94.70745849609375,27.05849266052246,-3.130528731049487,-7.352223943371411,-22.061178047419148,60.039029370569565,-91.04593183007817,0.2928499924291231,2.0491360719769673
0.8452,-94.82254028320312,27.508108139038086,-3.1319621491567555,-12.660915051230244,-17.302178856415647,52.323487174677666,-94.02577340588513,0.2956137348370449,2.0849014853636345
0.847743,-94.98458099365234,27.868038177490234,-3.1335367230439384,-16.198650805426077,-13.998152538823788,43.84305941439272,-9.084648188524486,0.29846232769429754,2.121373680903747
0.878879,-95.1491470336914,28.12753677368164,-3.135237892401007,-18.323217005251685,-11.876723103374509,34.644365545894644,-94.94932192507615,0.30132963305659505,2.158142432948486
0.881029,-95.3266830444336,28.277942657470703,-3.137077359655396,-20.368360057861093,-8.488207345749592,24.661875026739054,-75.55047926216582,0.3042075735327469,2.1951581654935715
0.883136,-95.55369567871094,28.314685821533203,-3.138930043104579,-23.04006197624516,-4.329853709696544,14.577356849309101,-92.26621755235561,0.30703761227714915,2.2320537489146854
0.885148,-95.83155822753906,28.24214744567871,-3.140824137255021,-25.486295935032516,-0.3123106666030975,4.219727154613843,-94.11599215558456,0.3098390681165259,2.2689475572254825
0.918998,-96.13639068603516,28.06722068786621,3.1406044606603505,-27.520758279327318,2.5905759196304157,-5.443175398182269,-93.6688057362822,0.31254230983451253,2.3054002886734906
0.921752,-96.4505615234375,27.80491065979004,3.1388999220834033,-29.61617152422802,3.3769464843879735,-14.880636031477884,-93.50188430007861,0.3151878300218397,2.341660194734594
0.924349,-96.7742919921875,27.45415496826172,3.137217311037683,-32.668733328468456,2.5989887916971672,-24.260372601663608,-42.8218609481161,0.31784821220770815,2.378179704422275
0.926955,-97.12771606445312,27.013044357299805,3.135537681764459,-36.7665975285714,1.4142271664745174,-33.696379685326484,-94.51967908397599,0.32060767028516735,2.4154888830389125
0.959349,-97.51900482177734,26.483932495117188,3.1339380858747443,-41.26126839869541,-0.3341471549055985,-42.7701767146617,-96.84844285181153,0.3235000193174625,2.453806422014913
0.961701,-97.93901824951172,25.87276840209961,3.13236378206795,-45.70996868061064,-2.4791603797852866,-51.789212702326346,-94.49934550678779,0.3265964327239336,2.4935878669178844
0.96421,-98.37024688720703,25.18714141845703,3.131029761740988,-47.86059717476173,-2.978176561867357,-59.536785070331014,-97.50481755765962,0.3298430012759922,2.534507317817613
0.966684,-98.79872131347656,24.430126190185547,3.1297335464536027,-47.32968657057664,1.8692573571885287,-67.13458505021565,-78.93752186701906,0.3333065726342928,2.576994225479389
0.998965,-99.26150512695312,23.571929931640625,3.1283455237300415,-47.60171592974532,10.99613071934686,-75.34434948916592,-97.47245718527175,0.33709536807338997,2.621742198913855
1.001101,-99.73129272460938,22.584434509277344,3.126577978633268,-43.38676862689002,18.996321902672687,-85.80303567461293,-84.84541088528015,0.34139894641324375,2.6699627057450908
1.00321,-100.0308837890625,21.45068359375,3.124434503240683,-32.606500059845885,19.636674335476183,-98.34897302890246,-98.94665956085555,0.3462964599152663,2.7221854190626154
1.005249,-100.1108627319336,20.21526527404785,3.1225955344757748,-23.937318314300345,12.75414201075904,-108.9792540568677,-98.92733908215764,0.3514947492572247,2.7766056825671552
1.039164,-100.05866241455078,18.987342834472656,3.121760159735878,-16.117725016592473,-0.1918674976452761,-113.71338794419776,-99.0614149502216,0.356463930857568,2.829913037827977
1.041536,-99.89181518554688,17.884681701660156,3.12228104704814,-9.770655617142232,-15.221170480474504,-110.54139345213048,-89.76645518111529,0.36070242156622434,2.8789415497022612
1.043981,-99.61678314208984,16.978654861450195,3.12377279443396,-1.7517979537015846,-32.633704703310045,-101.7197738371413,-90.37698660021496,0.3640098135732219,2.922386108120201
1.046443,-99.29029846191406,16.319015502929688,3.1266985132378244,-0.9144239118123089,-46.05706523385235,-84.73776522071188,-98.59037895669545,0.3662390570740077,2.9592642692535893
1.07966,-99.27629089355469,15.999407768249512,3.1314857784739587,-20.918545455883958,-44.06509178883691,-57.49099997993963,-98.38708011851558,0.36734247618234034,2.989208734605953
1.082545,-99.67140197753906,16.02308464050293,3.1360929778571194,-34.95747507782637,-45.11498748691625,-31.407593539738965,-87.49913964214183,0.36767346506049076,3.0143692075525066
1.085181,-100.04164123535156,16.27427864074707,3.140183953520409,-38.37753521035935,-45.487389891032855,-8.07462316980604,-98.86347536132413,0.3675260264705704,3.0365444287056866
