Time [Sec],Roll Angle [Deg],Pitch Angle [Deg],Phase Angle,Angular Velocity X [deg/s],Angular Velocity Y [deg/s],Angular Velocity Z [deg/s],EKF Roll Angle [Deg],Step Frequency [Hz],Phase Variable
0.0,-96.38594055175781,9.045564651489258,-3.1353940606829442,41.75961607601246,37.26986977228004,34.23221485590315,-95.43162430867112,0.4,0.025132741228718346
0.004402,-95.54319763183594,9.787503242492676,-3.132833289393163,55.686160057804194,35.665465166433215,47.95193046434314,-89.39187634793008,0.3998177571834776,0.04912041707032437
0.038321,-95.0101089477539,10.350811958312988,-3.130094682811125,70.78499331250731,26.04516250349047,62.59401189377457,-94.17048060534256,0.39937187501686866,0.07144014736720079
0.041297,-94.01715850830078,11.293808937072754,-3.126691762060304,87.58583116120214,18.790080925589567,80.2738609377042,-88.18313437229315,0.39856722099578457,0.09147763201662991
0.044642,-92.8862075805664,12.484784126281738,-3.122459716261403,99.97188061721086,16.61451882587335,101.83768339278323,-87.28122021257086,0.3972939463962746,0.10852012882982508
0.047397,-91.7597885131836,13.929564476013184,-3.118129261031602,104.68961522034373,14.718284142453975,123.38022297840851,-88.88421159073187,0.3955153743481868,0.12230774593580458
0.0788,-90.77124786376953,15.513397216796875,-3.1152354004431246,99.2507492446409,17.189945187973997,137.1108020027234,0.99998250184495,0.39338130983998365,0.13374998706197067
0.082476,-90.00492095947266,17.044809341430664,-3.1145153437043467,88.96255141106658,20.0851496790211,139.66917229975675,-89.84349719675981,0.3911526960079433,0.14446407003817424
0.085966,-89.38933563232422,18.427860260009766,-3.115094193264952,80.28617576877774,24.576786237606328,135.7471274141737,-88.38834338765699,0.38899863410764546,0.1555065486796755
0.089012,-88.80147552490234,19.658306121826172,-3.116724996054758,80.2740658433793,35.47436671874001,126.55147981004544,-87.31777928219189,0.38706130682707024,0.16777546739854798
0.118166,-88.25545501708984,20.723182678222656,-3.119009359817499,78.84140634421244,60.043557785989286,114.21557077273378,-86.91847229527414,0.385433615675518,0.1818681614308247
0.120342,-87.91371154785156,21.67701530456543,-3.120752967342487,73.76418522468347,80.85882565898078,104.98646207186164,-86.97392821602251,0.3840398885987208,0.19732862424872943
0.122415,-87.71661376953125,22.644010543823242,-3.1211960056097903,67.09145240560701,89.66828070705816,102.52352317791173,-78.33612662263018,0.38268299969994196,0.21293297771059075
0.124398,-87.69251251220703,23.700117111206055,-3.1208551464287937,54.382102775424926,102.30144640723793,104.20869477069395,-86.82236463757044,0.38122872586439815,0.2278401877247071
0.158475,-87.9083251953125,24.84978485107422,-3.1198127598779135,40.75797907951385,102.54617208519949,109.717795581632,-86.25821397121365,0.37954078702747635,0.24118786251540156
0.161225,-88.11071014404297,26.084308624267578,-3.1186881526656425,32.14275412086412,84.74651469303868,115.65066181924516,-86.20980469353583,0.37760778178575677,0.25288968334719203
0.16403600000000002,-88.1640625,27.326892852783203,-3.118423087586779,25.688254383506038,64.47831082161935,117.06035822242244,-4.49590455039504,0.37562041816385533,0.26412850610196703
0.166631,-88.0705795288086,28.478734970092773,-3.1191210802468925,23.070879789780253,36.16905842903284,113.41227905463775,-87.46706877743566,0.37379098087398965,0.27623473952671423
0.198886,-87.72267150878906,29.500141143798828,-3.1203781303820124,23.85357336488682,5.874276874912787,106.64313811542658,-86.86980201154311,0.37224335663043273,0.2899967096083996
0.202204,-87.20738220214844,30.41421890258789,-3.1215314067589284,22.647264627266892,-15.94392573051962,100.2517749392088,-86.39724593767312,0.3709423316696125,0.3052108685810555
0.205343,-86.64813232421875,31.258142471313477,-3.122705042731389,23.31550813754614,-31.269999378909056,93.78006141759501,-43.1491441393354,0.3698757120601697,0.3218160940042293
0.208447,-86.11338806152344,32.029483795166016,-3.123987654282713,21.00910181144728,-31.876626045138323,86.87087427964188,-85.79473160869608,0.36904908002080633,0.3398621881150482
0.238256,-85.73145294189453,32.733970642089844,-3.125289148225261,16.54622376436239,-31.966473768575256,80.09073673586698,-84.64079754599054,0.3684373734240108,0.35920675978590605
0.240436,-85.4772720336914,33.350345611572266,-3.1271248279238075,9.541737558241024,-26.316102447486536,70.8609313556995,-81.40371223956296,0.36815838178238697,0.3806034065155653
0.242459,-85.36810302734375,33.85306167602539,-3.129070545732547,4.0327473109901595,-22.31097684838673,61.251736287894495,-82.987088599473,0.36820890851044585,0.40405294866222585
0.244445,-85.30667114257812,34.262447357177734,-3.130935385923017,0.05582633773768766,-17.66137850486662,52.091629573112414,-46.09084989347454,0.36853357296869854,0.4292281236553374
0.278603,-85.32498168945312,34.6129150390625,-3.1323599033538,-3.8934528599437424,-10.412118809459503,45.137994979135435,-85.0140255594666,0.36895987470334657,0.45506230375969653
0.28136,-85.4604263305664,34.93693923950195,-3.1335260448078124,-8.64876716389002,-3.0612120253808484,39.49918204566967,-71.83726352147083,0.3693783253023571,0.4808739390519288
0.284128,-85.71067810058594,35.22304153442383,-3.1347081006574125,-13.434429705865956,4.76266614881415,33.809610561386954,-81.13381568935749,0.3697863424275521,0.5066463109213355
0.286779,-86.05419158935547,35.44431686401367,-3.136128904800038,-17.218203388117633,11.344437923618953,26.939510888506526,-65.04267046212068,0.37027583021377947,0.5329562145231679
0.31857,-86.40653991699219,35.58454513549805,-3.137516350564572,-18.867864827404965,12.108457761534702,20.18078769532691,-85.93029817894777,0.3708380914966665,0.559754122914629
0.322282,-86.71402740478516,35.656700134277344,-3.1388338006696372,-19.565054679386723,13.07373253843946,13.706975598090622,-85.7712321418601,0.37145785490713895,0.5869486557475807
0.325377,-87.04328918457031,35.65729904174805,-3.14033905078403,-20.94963989208044,14.865865747397732,6.251987616674961,-86.23170219241719,0.37224058329316156,0.6152060686040401
0.328339,-87.40238189697266,35.56976318359375,3.1412843449143053,-21.74437679824103,15.734221847527303,-1.543944411644107,-86.43741207517498,0.37323727501820525,0.6448570330434577
0.358412,-87.73710632324219,35.38151550292969,3.1393923474530907,-20.94733299568827,14.915130194333742,-11.060881766452226,-83.65792763187297,0.3746415556346993,0.6771315780050313
0.360606,-88.06510925292969,35.080448150634766,3.137558468711887,-24.42916535907484,12.824390506372621,-20.35563541543736,-68.83841773349477,0.37646576298841206,0.7121328340253565
0.362681,-88.46488952636719,34.68510055541992,3.135721104745145,-29.66151373503315,10.84520146793615,-29.761254987482847,-87.89712700256388,0.37878571029732183,0.7503635343767788
0.364678,-88.91458129882812,34.18772506713867,3.133800973061494,-34.57612171080246,8.5399545664489,-39.694976248417255,-79.01733202918165,0.3817579961314923,0.7928387651538739
0.398614,-89.38845825195312,33.585227966308594,3.131915294910324,-38.129210022705195,8.028171053260783,-49.56492744816584,-88.76779788599411,0.38552290359690916,0.8404809387453887
0.401469,-89.84636688232422,32.884666442871094,3.130057828789952,-37.80113554630197,6.898908557025895,-59.38180807806343,-88.89443737812019,0.39029071217562955,0.8946610819892629
0.404125,-90.24153900146484,32.09789276123047,3.128448234667701,-35.23689128658242,8.458421744552812,-67.96659771377158,-89.34996001131016,0.39621570111963905,0.9564115741501705
0.406876,-90.6324234008789,31.254215240478516,3.127190613905472,-33.37227354883104,12.418918033842107,-74.79288001557909,-83.2713190501933,0.40346890661979146,1.0268797750961702
0.439053,-91.08454895019531,30.340845108032227,3.125644969739284,-32.43185895295783,21.844621777142017,-83.23419469758196,-90.25306869329539,0.41272752165593624,1.11040406811588
0.442237,-91.6317367553711,29.291133880615234,3.1235794927001828,-30.590006235710096,36.477233149289226,-94.58133822988589,-87.22478817306462,0.42490997121760016,1.2128810912065557
0.445628,-92.16944885253906,28.09450912475586,3.1216123303725456,-24.970584209297996,44.691563569699646,-105.5285400353397,-91.39285529357578,0.440342592222091,1.3365449896335289
0.44976800000000006,-92.4234848022461,26.815845489501953,3.120065635621683,-6.912966366998251,42.96869274779354,-114.01341083367974,-90.31150870793203,0.45838518520568644,1.4775774858272295
0.479907,-92.3499755859375,25.558944702148438,3.1198564795714927,3.2180491769802084,35.20130258591207,-115.02994788785274,-91.52258457465437,0.47668374965071997,1.6213519476978748
0.482408,-92.33222961425781,24.416471481323242,3.120528004879222,-0.9902873565321694,28.926684418082743,-111.45368132900158,-85.92808252551247,0.4933369656452313,1.7559381130716427
0.484922,-92.51001739501953,23.398832321166992,3.1221364969050653,-3.938986316045632,33.44552049749025,-103.13908031648079,-90.53608423156226,0.5074913535127239,1.8758700306931
0.487105,-92.74564361572266,22.53642463684082,3.1243943414528887,-2.603829688271414,42.0242756610667,-91.39970634089971,-91.49382504741952,0.5192091576984105,1.981381787944132
0.519088,-92.97858428955078,21.82120132446289,3.1266128705409493,-5.43118756241525,41.65413404956537,-79.80747513060822,-91.1839817809148,0.5290686064546751,2.0759534050164214
0.522031,-93.26541137695312,21.268815994262695,3.1295705666075553,-15.494557339740727,30.073206802350253,-64.24569506905623,-90.39923313066554,0.5367856023062022,2.1576830809119625
0.524883,-93.46662139892578,20.9320068359375,3.1324920581072058,-14.660065317516079,2.9274606997327197,-48.7372451245437,-87.8607188578178,0.5424969643184969,2.227295860886755
0.527541,-93.40608215332031,20.760055541992188,3.135141631724796,-13.629523814223615,-19.427383678928653,-34.524891876932784,-89.22066218645026,0.5464290184026672,2.286087774889404
0.558628,-93.5314712524414,20.749210357666016,3.1385132262889597,-27.567157461906508,-12.99101809381696,-16.502575440471425,-92.44542120674305,0.5481842900589827,2.3314496197689167
0.560805,-94.12623596191406,20.89822006225586,3.141278667974244,-40.978071680233754,5.406491305923776,-1.693335803274507,-89.9751137809452,0.5482888261369551,2.3665498740873554
0.562926,-94.79711151123047,21.07667350769043,-3.1405047490235147,-41.51263985071939,12.444240106416283,5.908928132119554,-34.61845999616168,0.547671106239748,2.397118628470016
0.565112,-95.15276336669922,21.198875427246094,-3.1404239185793528,-29.514217290487238,6.647286522436741,6.371772913017706,-94.79125890099525,0.5471443341857798,2.4282200125192133
0.598915,-95.13522338867188,21.25627899169922,-3.140705745870408,-15.164006919763374,-6.864108316317857,4.834399356798563,-91.40509232549684,0.5468777222268716,2.4609229325909094
0.601574,-94.8912353515625,21.267433166503906,-3.141486794890875,-2.9839190434120453,-19.430018424400984,0.5755397005521892,-92.52334411848537,0.5470811067386687,2.496562175858338
0.604456,-94.66180419921875,21.200334548950195,3.1407637191309075,-3.2933483840416025,-22.277997279979324,-4.495910976345186,-88.65852583031332,0.5477310828231008,2.5350202157590194
0.606548,-94.6615982055664,21.091764450073242,3.1403808959522492,-8.116808979440979,-17.2117881329397,-6.57222530477924,-93.92418750455964,0.5484467931919288,2.573932115551432
0.6392,-94.61814880371094,21.011110305786133,3.140696613743728,9.572458041580449,-2.3299482806205996,-4.857630964599892,-80.06869950563346,0.5488625539513105,2.611004345773613
0.642421,-94.26031494140625,20.99143409729004,-3.1415539878556165,31.585912703495072,21.50906312095575,0.20882273522853195,-80.85408404161699,0.5487483289204845,2.6447727000846952
0.645072,-94.16108703613281,21.073200225830078,-3.140065030087482,9.021487171803031,31.655310840556986,8.24158543651971,-93.06863632833935,0.5479751411152592,2.6743934922033388
0.647849,-94.75581359863281,21.2685489654541,-3.1387803489217116,-24.0487306524943,22.61484684191872,15.268346597071782,-93.63724738418108,0.5467397104239095,2.701061345788961
0.678757,-95.3806381225586,21.441762924194336,-3.139844561821411,-37.54974360371048,-12.423136529428236,9.55317044113798,-94.11798185599724,0.5459973611548253,2.7307496969225276
0.680934,-95.37705993652344,21.407777786254883,3.1404453282866114,-27.111298683868807,-68.26959856573168,-6.26979477361483,-94.48853025929611,0.5463159383216412,2.767057402269936
0.682997,-94.9318618774414,21.129199981689453,3.1373238748806656,-22.28674504475882,-86.03941486140873,-23.218860960790458,-57.17725559428877,0.5475359853308105,2.809049226479423
0.684963,-94.8233871459961,20.702470779418945,3.135738507571184,-28.16327588209771,-68.29056724648363,-31.805820889107387,-93.95106444606496,0.5489680970342597,2.8524501502746014
0.718026,-95.10621643066406,20.242389678955078,3.1343897399998393,-35.05232591483034,-48.15686687529479,-39.25068610328626,-42.08166577053285,0.5504620957630769,2.8963299039504107
0.720769,-95.4729995727539,19.78627586364746,3.1345552893503865,-35.895744994300195,-33.36239368019661,-38.496424898147175,-95.21153289562196,0.5516275906043738,2.938239477535419
0.723531,-95.74762725830078,19.410741806030273,3.134726298740878,-29.847158276674094,-20.43012716607281,-37.66896797076764,-94.774145901856,0.5525264765992106,2.9785471285342098
0.726145,-95.89750671386719,19.008487701416016,3.134302654887825,-23.58104710945602,-16.54785276447944,-40.05577074603942,-16.083327909408638,0.5532895504525641,3.018057925353852
0.758355,-95.98471069335938,18.546070098876953,3.1336270503911834,-21.26731369792503,-17.741622982330515,-43.80791126092383,-95.68552912311401,0.5539311859052217,3.0568536475427517
0.761835,-96.01972961425781,18.071544647216797,3.1333034974946194,-18.390279217617454,-31.768586112847064,-45.60404610696209,-93.96148366845587,0.5543893803571617,3.0945370910756944
0.765145,-95.93450927734375,17.62778091430664,3.133082893805529,-14.35043235187189,-42.690932859911214,-46.7762363421305,-90.46421600925225,0.5546499052853222,3.1310073295676317
0.768117,-95.74041748046875,17.2137393951416,3.1333184912346557,-7.5450000562794965,-57.36074827246748,-45.38913420472763,-93.4744618375471,0.5547056541942016,3.1662072916479667
0.79783,-95.48661041259766,16.841447830200195,3.133562859189006,-5.346751910121906,-59.133414588517574,-43.93178698680577,-69.07960944009288,0.5545823471495677,3.2002857147992754
0.799981,-95.32491302490234,16.461090087890625,3.133593308965006,-6.079724269391716,-61.84638621741415,-43.6910740449816,-93.82080977374716,0.5542911765497333,3.233301672516826
0.802012,-95.21719360351562,16.076034545898438,3.1336568901106436,-9.410860888459824,-65.81720548386028,-43.29481037499955,-94.21825666450657,0.553843580574562,3.2653164858260424
0.804104,-95.16059875488281,15.707571029663086,3.1338955173475687,-12.094164736922803,-67.31385702536097,-41.967930015508685,-92.2754292869703,0.553269180424303,3.2965064417209122
0.838223,-95.14692687988281,15.371694564819336,3.1344682529723342,-14.19118734514669,-62.03513849512745,-38.83945065864355,-89.98746624011383,0.5526312420726728,3.327261084696636
0.840757,-95.18965911865234,15.06946849822998,3.135002159874558,-15.909312039353289,-54.46311906426503,-35.94484722424341,-51.634750381854296,0.5519533374166911,3.3577245291272972
0.843226,-95.2527084350586,14.779757499694824,3.1354693608279867,-14.96496666961274,-45.66603007367995,-33.418766646511315,-94.83313318009927,0.5512491640485131,3.3879803283657073
0.845301,-95.30979919433594,14.492008209228516,3.1358016155227344,-13.476002506022885,-34.38127007416034,-31.624339347765563,-94.38455969986634,0.5505125794545184,3.417988237348671
0.878098,-95.40046691894531,14.201811790466309,3.136171430254886,-13.096591474044201,-20.953968524466937,-29.632936223545816,-91.47871179455647,0.5497693784928309,3.447908293492376
0.880891,-95.54096984863281,13.916792869567871,3.1364886079105614,-13.240830555162884,-8.653861631237204,-27.940270205696795,-93.88998191011764,0.5490227558748153,3.477760154041687
0.88345,-95.70915222167969,13.63165283203125,3.136747274856542,-12.89167640743371,3.1537901169384934,-26.570959003534515,-94.21759848319105,0.5482711729809027,3.507533936575726
0.8860330000000001,-95.88651275634766,13.340653419494629,3.136868633760829,-12.480862726972244,11.638219727746833,-25.953450138410123,-92.11991104620452,0.547485245909512,3.537044704932487
0.917946,-96.0495834350586,13.03612995147705,3.1368226502252496,-10.88268298478024,16.777686922503076,-26.25065215976489,-95.06886329262895,0.5466190789596842,3.566001930009727
0.920448,-96.17938995361328,12.715688705444336,3.1367529708193373,-8.631622535299641,21.58265328662076,-26.670117982357468,-5.901249380037367,0.545671805203845,3.594395123120596
0.922653,-96.2845687866211,12.39398193359375,3.136773025118274,-6.962813087561004,22.034388337947064,-26.588647485937553,-94.09059537816746,0.544684653022885,3.6224782337312282
0.9247090000000001,-96.36858367919922,12.090405464172363,3.136857261990406,-6.267603990438549,17.862857132550946,-26.146722293806683,-95.56910084514959,0.5436901020892979,3.6504528320072676
0.958178,-96.43409729003906,11.805034637451172,3.1369334817731875,-5.614955509581735,12.711485771845018,-25.74335351954053,-94.67890888862657,0.5426897261938994,3.6783283414907073
0.960722,-96.49468994140625,11.527935981750488,3.136991428660013,-6.120645640256554,8.768787247985484,-25.43914884673921,-94.51572132219967,0.5416780730952382,3.7060701387450248
0.963325,-96.57102966308594,11.252706527709961,3.136971862668628,-7.2229327312513005,4.106815163010247,-25.567537620115232,-95.50459550852837,0.5406190261351267,3.7334505875465727
0.96578,-96.65247344970703,10.976533889770508,3.1369179853837155,-8.202850579962922,-0.6540126510609647,-25.887467095933214,-10.462945829945232,0.5394949553136592,3.7603559374948388
0.998267,-96.72959899902344,10.70531940460205,3.1369472346740204,-8.68452918061056,-5.008625102807717,-25.746015585769545,-96.52662000598924,0.5383468947143519,3.7870399277707625
1.001723,-96.7999267578125,10.443178176879883,3.1369855832445928,-8.76529616754596,-7.348564669523576,-25.552039920888475,-94.51755516951386,0.5371762467664096,3.8135098627747213
1.004696,-96.87194061279297,10.189676284790039,3.137140616572944,-9.128920071031807,-8.891870671923698,-24.710541832122686,-95.9913876443399,0.5360424422910505,3.840137738164416
1.00717,-96.93222045898438,9.95457649230957,3.1373275135451806,-7.782518177119398,-10.960394315835707,-23.68790883411545,-57.59107372824741,0.5349561897978324,3.866993152433419
1.038116,-96.96813201904297,9.742183685302734,3.1376620654883984,-7.2841474479138935,-12.404681358290862,-21.837928191755402,-94.1890965792949,0.5339956553713511,3.894570225355137
1.040315,-97.01827239990234,9.551647186279297,3.1379105200536586,-7.706914813196526,-12.789390055744537,-20.468106432952666,-96.31653895503378,0.5330951323473155,3.92246400888101
1.042427,-97.08277130126953,9.356863975524902,3.1379406934837877,-7.960378864427469,-12.718549041220458,-20.31387393130461,-96.16708680998937,0.532107845904135,3.9497560602361763
1.044428,-97.15771484375,9.147789001464844,3.137904570099083,-9.084244657444401,-12.857522046489061,-20.530647060087887,-31.267823779819064,0.5309894365189753,3.9761622088121276
1.078266,-97.24687194824219,8.931391716003418,3.137831129820759,-9.617960761831075,-12.89587868132056,-20.95868989273071,-96.34170316093466,0.5297183628017359,4.001538867365662
1.081088,-97.33295440673828,8.70197582244873,3.137664902651151,-9.634633253595075,-11.58038510094975,-21.90426640406915,-96.45891965728165,0.5282397409740143,4.025531598763838
1.083623,-97.4097671508789,8.45595932006836,3.137566217466249,-8.459621296525796,-8.211366972084281,-22.472340067528283,-7.323614531391774,0.5266144808236056,4.048510069858008
1.086151,-97.47787475585938,8.203760147094727,3.137528536251894,-7.839804681235587,-4.187677772594028,-22.698508121514916,-97.22582963589682,0.5248974483959568,4.070809800621243
