Time [Sec],Roll Angle [Deg],Pitch Angle [Deg],Phase Angle,Angular Velocity X [deg/s],Angular Velocity Y [deg/s],Angular Velocity Z [deg/s],EKF Roll Angle [Deg],Step Frequency [Hz],Phase Variable
0.0,-87.92156219482422,11.057306289672852,3.130449875974968,-8.071168801633306,27.21986283317887,-56.13444927869423,-87.05105167804379,0.4,0.025132741228718346
0.004444,-88.16051483154297,9.912968635559082,3.12973659073901,-6.749392727886555,19.322905690289552,-59.89045226555427,-85.8617078987355,0.40022388503979545,0.051672193649977
0.039194,-88.04358673095703,9.724649429321289,3.128735011225959,2.220325665432599,9.361155040548704,-64.86428481161677,-70.62449992704725,0.40069327804393706,0.07976828521753597
0.045534,-87.83146667480469,9.01368522644043,3.1285617152602354,9.540388595879946,-7.081857735265626,-65.58024573098501,-87.34835405443062,0.40137800375151467,0.10924684489574871
0.05211,-87.60893249511719,8.402168273925781,3.1298354729279234,9.121795329953837,-20.97928974326747,-59.019323108621684,-83.3648942538256,0.40214111400466224,0.13926093178404955
0.05688,-87.5530776977539,7.912128925323486,3.1308133730548318,0.5319140550237013,-23.233653442985414,-54.075512659055974,-83.87957323710593,0.4029468667267521,0.16959089683797388
0.078485,-87.73960876464844,7.4588303565979,3.131719681824861,-12.450137120990943,-15.714938515953065,-49.63412067955265,-65.58301941470421,0.4037584332148134,0.20000801779747557
0.080547,-88.08755493164062,7.064975261688232,3.132869637416239,-21.416334765236368,-5.5834837054336095,-44.026572937012624,-81.93189940993808,0.4045000172725876,0.23003641840557287
0.082663,-88.47701263427734,6.729190349578857,3.133784357694055,-28.744110046473715,-1.0566549173150082,-39.583862730999485,-85.62413155909309,0.4051728563951595,0.25967947694742194
0.08473,-88.92024230957031,6.407161235809326,3.1343689948293036,-36.57158538248378,-1.1757358503995954,-36.803408833103184,-18.274695766443283,0.4058197078879255,0.2892015261243969
0.119202,-89.41191864013672,6.08666467666626,3.1347968912374062,-41.7817697945854,-3.440806618693477,-34.81472070907852,-89.190629339072,0.4064679723399897,0.318773096064427
0.122713,-89.84896850585938,5.788701057434082,3.135430569474097,-39.91017160350226,-10.413683776553084,-31.722605279354536,-89.12679131822524,0.4070622205491623,0.34804600359757487
0.126457,-90.09859466552734,5.562425136566162,3.13662086822511,-29.457840909077955,-17.80544939257699,-25.665906004541757,-89.18783475070815,0.4074352115467085,0.3759660487856912
0.129241,-90.12964630126953,5.443346977233887,3.138115018548672,-16.52660404597153,-21.62167757244363,-17.95874786585605,-89.25994299430488,0.4074674144627313,0.40176829502267297
0.159325,-90.08797454833984,5.421952247619629,3.1396800261391005,-11.848578455125825,-26.98632500507779,-9.872346034826322,-73.31537640544244,0.40710744127756504,0.42510844951172483
0.163227,-90.1401138305664,5.485021114349365,3.1412241331799486,-14.111346702617471,-36.96339576912698,-1.9032783160009505,-89.61574708030676,0.4063394326217711,0.44586222374464013
0.166959,-90.32345581054688,5.616627216339111,-3.1406510717099123,-21.36478732757028,-42.534033169392266,4.872831550597755,-25.747087242867572,0.4052282323619231,0.4644114061263977
0.1706,-90.61453247070312,5.796929836273193,-3.1395462036350383,-27.06040694436304,-44.8207429374721,10.624835659649442,-88.20288608729716,0.4038373021082758,0.4811331743496771
0.198633,-90.9428939819336,6.0148539543151855,-3.138675090638728,-31.869908554089616,-42.012312584735426,15.202425026297403,-88.52351657778235,0.40224785747829933,0.49652024523501087
0.200857,-91.39913940429688,6.242170333862305,-3.138290838136834,-43.985082952899376,-31.118232575551374,17.290960270703902,-88.59782071280642,0.40064537859874305,0.5117255517634385
0.20295,-92.1385726928711,6.438420295715332,-3.138432141937386,-63.203681409279085,-22.249838117578655,16.68487489696636,-91.29119480171123,0.39923626757932273,0.5280451376720423
0.204924,-92.97486877441406,6.556923866271973,-3.1395331081318303,-66.84434299162513,-29.503913950124275,10.971353354358993,-62.2439074976416,0.39842529188013237,0.5480343815798856
0.239034,-93.51576232910156,6.54381799697876,-3.1411484228157875,-54.348392376776324,-26.50680645175517,2.3802146309304852,-87.7632357916886,0.39845093318028485,0.5732292900197609
0.243021,-93.76202392578125,6.427066802978516,3.140834391474508,-38.60461509460018,-15.13449367235975,-4.073512441277734,-92.03375803485446,0.3991420676139286,0.6026072262284209
0.246816,-93.80975341796875,6.297511577606201,3.140300850489443,-20.82944905325573,-12.869390353945604,-6.943320154556611,-88.87427984108615,0.40018550457693425,0.6342421697704375
0.249088,-93.62268829345703,6.18894100189209,3.1400293229880125,0.4825422460516756,-4.701325927425558,-8.386001248783167,-92.26207052135258,0.4014368239854321,0.6672488383175403
0.279203,-93.23896026611328,6.152024745941162,3.1412360459747792,17.993064443793486,1.7546445417598933,-1.905068892780552,-92.23522934065922,0.4020932924402768,0.6965965708099084
0.283269,-92.90937042236328,6.36790132522583,-3.1386780147383684,16.753962260421037,5.682432655939584,15.51558407710061,-91.50040130018962,0.40099428718361835,0.7149555838005212
0.287366,-92.85173034667969,6.84700345993042,-3.1358998701788634,7.188963639187889,-3.2402882729177698,30.286004761036583,-91.98819035251809,0.39842608342199604,0.724014297794603
0.290788,-92.70716857910156,7.344511985778809,-3.135377224625492,20.057962111029862,-24.478462249409407,33.01510246656356,-91.71906772436859,0.39572998677662585,0.7321080720992187
0.318751,-92.25581359863281,7.670654296875,-3.1363989431694463,26.196440948322497,-26.379095574654272,27.453518482043126,-88.02115881782788,0.39379354477496803,0.7448054965514495
0.320876,-92.00628662109375,7.822941780090332,-3.1378157334122987,16.588340418331985,-14.310608080142485,19.910400996653614,-90.46435422378775,0.3927798850736608,0.7631792629556382
0.322973,-92.03968048095703,7.838254451751709,-3.139899736566534,6.593599528013149,-8.696646789971808,8.927581462225463,-90.82837771308641,0.3930147427646212,0.789334005377264
0.324931,-92.12271881103516,7.69508695602417,3.14088090624222,1.021807292169603,-9.614517492715741,-3.7567760788967326,-91.27303335597914,0.3946339142379635,0.824201404360809
0.359346,-92.25952911376953,7.42280912399292,3.13869759064372,-10.013193073248447,-12.35618274631554,-15.303581835452585,-91.0668668237393,0.3974523384585119,0.8667056661293053
0.363227,-92.53275299072266,7.109339714050293,3.1376599810079346,-18.854038816977564,-16.166651369164565,-20.850100130211263,-43.33243614203417,0.400692001206378,0.9120337344399815
0.366646,-92.7891845703125,6.847975730895996,3.1373889392056884,-20.950925675191698,-28.88862660402743,-22.348879275638424,-92.40754356451794,0.40379862141913136,0.9567294258625834
0.368662,-92.94210052490234,6.648335933685303,3.1376393594481304,-19.21676796568214,-36.645218236831106,-21.052152493785872,-91.5217719896691,0.40638913961605133,0.9983775473870528
0.399407,-93.0870361328125,6.482449054718018,3.137767895720696,-21.642649668290154,-38.21685842522938,-20.39942375820631,-92.04928538576522,0.40856794331309,1.037601557473844
0.403785,-93.30459594726562,6.30224609375,3.137535668979201,-25.066181244468787,-49.13687266269197,-21.688594643289537,-4.667041626904659,0.4106372514566117,1.0762744849813404
0.40758,-93.46154022216797,6.108089447021484,3.137358506710227,-20.482139056602456,-63.84683251209499,-22.673787959361345,-91.67942866811038,0.4125903118686282,1.1143470249154848
0.41139500000000007,-93.48738861083984,5.911709308624268,3.1372334490698677,-15.502811623352686,-63.55711637807056,-23.349933998510295,-92.84540120214768,0.4144290488688837,1.1518239640734338
0.43888,-93.4835205078125,5.687652111053467,3.136930100262241,-9.92834334073667,-53.00666660112444,-24.973801228397072,-92.60404983006588,0.41634388581206455,1.189894584527686
0.441082,-93.45866394042969,5.390729904174805,3.136008876201026,-5.849541771720409,-39.94626573817119,-29.900249337092603,-91.96836616390273,0.41887295889855447,1.2319448772461867
0.443099,-93.45746612548828,5.000607490539551,3.135077340773646,-4.96105582344634,-25.463969754183037,-34.888158903034494,-92.18096784942193,0.4220699333563633,1.278350624396182
0.445404,-93.48682403564453,4.559675216674805,3.1343233532915407,-3.385945258619465,-10.768455754874593,-38.93796930723182,-89.59475909566724,0.4258555284777571,1.3286556560805238
0.479617,-93.48880004882812,4.078403949737549,3.1335385710342663,-0.48009933284548534,0.8257825171766767,-43.14273621312922,-88.72704293857991,0.43033404188436564,1.38355227771006
0.483383,-93.45117950439453,3.5449628829956055,3.1326348000081774,2.1968193559605886,7.1986684842248305,-47.96483952187447,-91.64917464046256,0.4356879981728961,1.4442308624889066
0.486146,-93.37149047851562,2.967484474182129,3.131894533466959,6.248590451336526,9.925252680137241,-51.88455531295055,-92.22411891630246,0.4418549376696564,1.5103539704115607
0.488087,-93.2618408203125,2.3737411499023438,3.131407584090542,7.669895187895057,13.385697159911562,-54.42590136347763,-91.63162755585631,0.448665508483431,1.5809086134048829
0.519785,-93.18296813964844,1.784318447113037,3.1312347575591244,7.155496139141649,13.815512426644002,-55.30268933213758,-92.1629167919158,0.455845441959656,1.6542119512366398
0.52277,-93.13702392578125,1.221253514289856,3.1313816379809376,5.5405542589527865,14.057494076106506,-54.49153265121228,-90.12992710253396,0.4630466657737328,1.7281001887316159
0.526683,-93.1236343383789,0.686336100101471,3.1316172685085193,3.3321957252762844,16.675193103817865,-53.22634256030497,-92.09635825895586,0.4700668419728995,1.801303336749312
0.529962,-93.11864471435547,0.1539253443479538,3.1316473473054076,3.070086362103399,20.90000490738196,-53.06299517120953,-87.75034693456153,0.4769312069204005,1.8739685844793328
0.558988,-93.10800170898438,-0.39397871494293213,3.1316008771683026,1.5250917021526966,23.367641263933553,-53.30485899990885,-87.86129575669725,0.48356223007641896,1.945599003263373
0.561099,-93.12069702148438,-0.9407915472984314,3.131668468129402,0.254735106746799,22.133779543201797,-52.95146501225239,-73.51353337910989,0.48977018426362307,2.014987840791289
0.563243,-93.14351654052734,-1.460652470588684,3.1319703865145594,-1.0965910333920728,16.73043055118305,-51.35302999174016,-91.86044871371173,0.49534080559285376,2.0807622551355713
0.565375,-93.16303253173828,-1.9342296123504639,3.132498277595096,-0.5511766292261652,10.587413906960588,-48.54574028059488,-48.93157324575528,0.5001437776566247,2.1420633993549254
0.598622,-93.15665435791016,-2.3649773597717285,3.132988324458024,0.4152019969619183,3.6719728770486775,-45.92659496032677,-92.72821073626858,0.5042929565860108,2.199558419793398
0.602315,-93.14938354492188,-2.7672922611236572,3.133442272073916,0.5831823087074631,-5.86970918590534,-43.500091710504286,-90.76254741145131,0.5079038388712215,2.2539319232671424
0.604417,-93.15104675292969,-3.1352739334106445,3.1339708611357198,1.2708771838866997,-17.120977352829794,-40.67952752670708,-50.70651719480052,0.5110082018353813,2.305349750410261
0.606459,-93.15214538574219,-3.4502549171447754,3.13478772605083,1.4886755880974216,-24.669425800866502,-36.319988534217195,-92.39022571241313,0.51349896331536,2.353107258601156
0.638321,-93.1412124633789,-3.7046220302581787,3.135635254660149,3.3293518052606204,-27.69321543322826,-31.79262154853634,-91.73988985600948,0.5154417503398561,2.3975782409039987
0.641433,-93.08154296875,-3.9152748584747314,3.1364684383015455,6.462278042162252,-27.524989581518142,-27.32859944476547,-91.79091821235474,0.5169137847684585,2.4392134663218794
0.645261,-93.02375030517578,-4.091619968414307,3.137194386675724,4.631888516775915,-23.685272381095828,-23.44233450514952,-47.88022343229213,0.5180303577349238,2.4787077521545253
0.649078,-93.03816986083984,-4.247856140136719,3.1377725613550287,1.737356372475239,-17.018821628508498,-20.36384359527242,-92.42115280618482,0.5189083146153566,2.516772925249929
0.678113,-93.05575561523438,-4.383462429046631,3.1384089832475888,1.7772267479815422,-9.592514892078192,-16.974439059281757,-90.83021175114303,0.5195387852274915,2.553338259918349
0.680285,-93.01692199707031,-4.483712673187256,3.1390980569567906,3.823295291223487,-1.857342305624853,-13.294923092068446,-92.05095480019179,0.5199169675887725,2.588358034392697
0.682399,-92.94757080078125,-4.5530548095703125,3.1397241260417204,3.9963338649775286,8.538860882408052,-9.950861620656557,-92.08189338392314,0.5200934455318594,2.6221342245288137
0.6844690000000001,-92.87513732910156,-4.592796325683594,3.1404442751627055,5.255096320989035,17.168402771331778,-6.110930123049035,-89.6012510652758,0.5200458570552372,2.6545136522649715
0.718737,-92.74893188476562,-4.582828044891357,3.1412859268946742,9.391678302175844,20.378770973703485,-1.6299832374016998,-84.94674271200628,0.5197495267202386,2.6853271987391274
0.721834,-92.56171417236328,-4.53299617767334,-3.141309641579905,12.75794130348486,23.88441508408401,1.5009246786001933,-90.28399419508177,0.5193299444609427,2.715347711549388
0.724124,-92.3803482055664,-4.467380046844482,-3.1407590689825007,12.799798410265991,25.662441391085267,4.4121677344789525,-91.31479250393697,0.5188153257380662,2.7447447295171643
0.726198,-92.19015502929688,-4.361061096191406,-3.139972000556915,17.145262090423774,26.336253213085367,8.56046989339468,-91.34375026949482,0.5181415343576763,2.773109301733964
0.758774,-91.98241424560547,-4.209675312042236,-3.1393762235590263,14.668246176594462,27.755781673572873,11.681057820447506,-90.85346699870132,0.5173948092477846,2.8009732822521465
0.761696,-91.86170196533203,-4.037862777709961,-3.138757763087197,12.452919569304077,32.78025665723643,14.920884628709478,-90.37979666924915,0.5165842622845919,2.828389340117002
0.764965,-91.72270965576172,-3.83628249168396,-3.138113744374186,12.855455060491485,47.557292379383554,18.282869370277126,-86.93328396021643,0.5157213587998966,2.855425504087518
0.768701,-91.54938507080078,-3.632862091064453,-3.137989128829436,12.222767807484034,62.508033472502454,18.901986744951056,-90.7805244487244,0.514948578527434,2.8829737110760045
0.79822,-91.38284301757812,-3.4658970832824707,-3.1382152496579176,13.025653983098094,59.058808432213524,17.68365175175003,-90.49752033294038,0.5143314731168933,2.91145149685308
0.800316,-91.19912719726562,-3.3115549087524414,-3.1382757293144024,15.139423361393206,52.164511106651034,17.33207117931821,-80.80468029324028,0.5138120360579127,2.940504177105169
0.8024220000000001,-91.02111053466797,-3.1391611099243164,-3.138166709512713,13.98423090574801,46.58895597018334,17.866798151702046,-89.40926391516815,0.5133488749579687,2.9698778124432548
0.804525,-90.86599731445312,-2.9349451065063477,-3.1377605381869866,15.532031172622002,38.09250800120013,19.951003056174756,-90.01018662375179,0.5128996766459214,2.99931007729492
0.838571,-90.65062713623047,-2.6847498416900635,-3.137229107702127,19.58991656796557,30.620182011463214,22.663957609598405,-89.3538351226078,0.5124689037661431,3.0288298885895544
0.841888,-90.31737518310547,-2.388927698135376,-3.1365017516894174,29.455890890069917,18.997802346175288,26.344649223122605,-7.9692595513550595,0.5120649526644159,3.058491159827661
0.8440079999999999,-89.92930603027344,-2.0379998683929443,-3.13563303818954,29.15803317055483,25.823526280018143,30.70769722529859,-89.73896652532662,0.5117140775084319,3.0884605360719553
0.846038,-89.6595458984375,-1.6677014827728271,-3.1353591684340865,26.47574275140995,37.36758587364083,32.02253596128272,-88.9372903994657,0.5114831501221193,3.1191615202440306
0.878452,-89.44124603271484,-1.325518250465393,-3.1353244929437367,23.91632402033902,33.806967278178156,32.122273798637835,-88.59594656916714,0.5113871015643199,3.1506954634940616
0.8804,-89.24923706054688,-0.9801270365715027,-3.135021788462131,22.090035596662453,26.20506576969693,33.60128979170156,-77.08169177590206,0.511427641286226,3.1830815813074
0.88218,-89.04422760009766,-0.579754650592804,-3.1341808036066143,23.096701319937488,13.213815449448191,37.81490179257413,-88.46465498427898,0.5116374793932799,3.2165339794326786
0.88392,-88.79903411865234,-0.06516855955123901,-3.1324812244690707,24.38755584665112,18.92846397326861,46.358501972492526,-87.78039428485738,0.5121108081619613,3.2516551227287853
0.918364,-88.59427642822266,0.586998462677002,-3.1306753043077227,19.957517349095657,19.30812857602023,55.41951971789065,-86.10615156674017,0.512944775283689,3.289071963749607
0.920686,-88.51077270507812,1.3075056076049805,-3.1293802214542836,13.732583684836293,11.102562142088583,61.93590950686551,-87.3965186503894,0.5141774080213796,3.329046094410783
0.922727,-88.5012435913086,2.0514159202575684,-3.1283985964682954,8.224889039093613,12.353422496117208,66.90761786409612,-87.24016797987206,0.5158371422170351,3.371781231276386
0.924824,-88.5460433959961,2.8281702995300293,-3.127533085095295,2.583355342460654,19.07032529478248,71.33331406888676,-87.72856637380684,0.5179659998619394,3.417568241880681
0.958618,-88.6357192993164,3.646484851837158,-3.126676596557178,-0.9405031748890043,26.096327450563034,75.75610744328013,-87.61471475501527,0.52062653267975,3.4668296261903286
0.961401,-88.71621704101562,4.49938440322876,-3.126028013891162,-1.3006508322524315,31.493237281741752,79.1224617983693,-86.66435114270523,0.523838609238183,3.519723628234424
0.963987,-88.7600326538086,5.359039783477783,-3.1256997435892124,-0.02486640257349564,35.310134820147056,80.831395619274,-18.958039259566494,0.5275769596026553,3.576126126846553
0.966577,-88.78058624267578,6.201148986816406,-3.1257214266312405,1.3768412722788064,37.88097021241566,80.73978912212579,-88.55753113956186,0.5317833467520233,3.63570427478959
0.9987269999999999,-88.80184936523438,7.009964942932129,-3.1260224731163597,1.9079360781280763,40.33631393600853,79.2270319945622,-85.45612425463263,0.5364002511366827,3.6981260736930857
1.001732,-88.83102416992188,7.7799577713012695,-3.1265030807118563,2.7009927577528416,41.71731671448258,76.80636514138548,-88.04698453964542,0.5413923287781284,3.7631952443492116
1.004715,-88.86486053466797,8.495994567871094,-3.127370912470257,2.2504918362321953,40.757425834191075,72.41603565611717,-86.87298209857089,0.5466125318978093,3.8300114311472684
1.007159,-88.93685913085938,9.13454532623291,-3.1284857230990077,-0.34537539893171765,39.57289686228703,66.79289800679659,-61.585475798742046,0.5519350209751592,3.897798294607103
1.038466,-89.04544830322266,9.710798263549805,-3.129449737245842,-1.8727223975318408,37.40277842333931,61.95533456486502,-82.92607832059217,0.5574069281436996,3.966858401473816
1.04054,-89.12776947021484,10.251322746276855,-3.130279935644922,-1.0968065045160453,31.946587672806764,57.77249939639253,-87.0763736684936,0.5630514133341249,4.037346658099215
1.042704,-89.15035247802734,10.746708869934082,-3.131258462707726,0.9105854522204674,24.61024733435022,52.788295208075375,-88.04039345084183,0.5686852224892668,4.108122488680733
1.044741,-89.12611389160156,11.180830001831055,-3.1322738581211214,2.9524762675678917,18.47022487430516,47.58827411745874,-88.0332033834792,0.574138738171569,4.178119484631795
1.078616,-89.07523345947266,11.56857967376709,-3.1331221613607165,4.753899174127615,13.107370366328126,43.231334011948036,-77.82426216885217,0.5793521422273457,4.246950469235063
1.081454,-89.00460815429688,11.935564041137695,-3.1336736564470153,6.1034809479854895,8.142341080332132,40.3844701847517,-87.99248349374821,0.5843661405355098,4.314856118412402
1.08391,-88.9221420288086,12.28616714477539,-3.134266738533304,6.807372923090323,3.441471494920495,37.3252045498409,-87.03325308315588,0.5890002659898901,4.380689994861251
1.086078,-88.82378387451172,12.590494155883789,-3.135099521547519,7.791239474915858,-2.4058950749926757,33.04549339327553,-85.16371598220626,0.5929560231076023,4.442552728033957
