Time [Sec],Roll Angle [Deg],Pitch Angle [Deg],Phase Angle,Angular Velocity X [deg/s],Angular Velocity Y [deg/s],Angular Velocity Z [deg/s],EKF Roll Angle [Deg],Step Frequency [Hz],Phase Variable
0.0,-92.61911010742188,8.368074417114258,3.1388261644718027,-13.219517803631506,5.349054537645847,-14.680921300146712,-91.7020892152692,0.4,0.025132741228718346
0.022193,-92.8721694946289,7.936450958251953,3.1363424729357336,-10.904922934491449,7.0645060665660315,-27.937430554549362,-91.54078059059468,0.4001076445862115,0.050941833339918405
0.03932,-92.7811279296875,7.4061408042907715,3.133834392838963,-5.599658020275022,8.317856451433949,-41.24348600119128,-90.18703489366355,0.4004184968848511,0.07803448067297687
0.043444,-92.71276092529297,6.730241298675537,3.1314397902056657,2.109608085543281,7.911578016581373,-53.934370214952246,-91.68590074856492,0.40101930139055764,0.10696848287921804
0.047247,-92.5545883178711,5.949678421020508,3.129289478909669,8.056690508140171,5.09045076906447,-65.24687102778587,-90.76134311638756,0.40197916615602103,0.1381962768943828
0.05109,-92.36731719970703,5.1019792556762695,3.1276734807749578,11.943663226108864,0.09601820571255085,-73.6686035574383,-91.35431412558872,0.4033217887785552,0.1718893195352144
0.079094,-92.146728515625,4.247110843658447,3.1268829988797737,16.572106766222156,-7.936787391034245,-77.6669689768071,-91.26849618033356,0.4049947365290844,0.20774221563420697
0.082029,-91.85994720458984,3.4546852111816406,3.127114548046085,21.849901513370437,-16.71894900318826,-76.20630570204318,-89.1945299729462,0.406849790995668,0.24484443638310896
0.08489,-91.52935791015625,2.788273572921753,3.1284085353700832,25.531484466581322,-23.49277886726465,-69.14476436446377,-90.7166197268858,0.4086512581932422,0.28172651490040385
0.087723,-91.21141815185547,2.2785301208496094,3.1303153946299433,26.178984692351236,-27.47657207803921,-58.93778431031007,-89.56637081296452,0.41019058705959227,0.3170747192287739
0.119356,-90.96195983886719,1.9006662368774414,3.1322436028697145,22.71148035829606,-29.835475238098788,-48.72620753884495,-89.7870565044985,0.41138152073401196,0.3503306108912754
0.122762,-90.83131408691406,1.6160320043563843,3.134041955922334,15.25202244495545,-29.133413753691517,-39.29647227638745,-89.84275960094577,0.4121971732444264,0.381303370027687
0.126024,-90.861572265625,1.4075703620910645,3.1356818243485955,3.586336392121881,-23.45850156291494,-30.772044437469276,-86.75805464211572,0.4126408483026798,0.40999017486076994
0.129156,-91.07438659667969,1.2579845190048218,3.1370312905231175,-9.957615823972054,-13.30042054057666,-23.802169361193304,-88.42325684030094,0.4127759234528318,0.43676586621154573
0.159084,-91.42015075683594,1.140059471130371,3.138004754011188,-20.956109788771737,-1.703877880093304,-18.793458454134136,-90.19491143448546,0.412713152470343,0.4623069406706177
0.161965,-91.80741882324219,1.0340068340301514,3.138684670279832,-27.437336056352073,7.671091324773456,-15.296551863249348,-78.71388906316196,0.4125498050581983,0.48721213076747877
0.164854,-92.17643737792969,0.935015857219696,3.139161054575085,-30.123675070127476,13.038648417994043,-12.842079842549309,-91.43601319074652,0.41235951441767077,0.5119377681470374
0.167633,-92.51805877685547,0.8490833640098572,3.139610669806908,-31.29530181468937,13.169811955720384,-10.50630028792481,-91.42977047558622,0.41215012315375904,0.5365314364568237
0.19891,-92.87855529785156,0.783004879951477,3.1399492712771826,-34.888599450235965,8.150255562032884,-8.745347746301293,-88.64005467337068,0.41196519468865916,0.5612656526235484
0.201283,-93.29573059082031,0.7156704664230347,3.1399020912523428,-38.37116605895831,-2.1700620898870637,-9.03682777667888,-92.30447807621084,0.4119752143871109,0.5872131448290143
0.203646,-93.73954772949219,0.6093155145645142,3.1393479163095086,-41.381022105413244,-15.483014320043404,-12.056235842688077,-91.38706653996827,0.4124229867609511,0.6159117477688807
0.206103,-94.15731811523438,0.42441821098327637,3.1382166852883566,-39.3091012961628,-24.427051415526723,-18.21280016712926,-93.16950847528946,0.4136092142846169,0.6492783356241448
0.239084,-94.44110870361328,0.1350773572921753,3.136862602086966,-30.78855641978778,-25.509079738556387,-25.59486349943716,-91.63025369488743,0.41568062062875527,0.6882811989119059
0.242058,-94.6303939819336,-0.23604856431484222,3.13570377200556,-27.528790581791252,-22.596227746241265,-31.929426822517108,-93.767365249698,0.41856725875003375,0.7325364648228062
0.244429,-94.9029312133789,-0.6474525332450867,3.1348765360385733,-30.45930715084732,-18.04546394755853,-36.51968960517003,-87.85689607905792,0.422103128975914,0.7810523491765974
0.246936,-95.23994445800781,-1.0625463724136353,3.134549957698797,-30.641328277133574,-15.35034643315237,-38.43154834631581,-56.48518681148713,0.42597808040020674,0.8319209088127079
0.279192,-95.51685333251953,-1.4269294738769531,3.1349246680951226,-27.23543737203379,-17.92992105246401,-36.49250886736796,-94.17343017995378,0.4296929325392524,0.882027005350616
0.281783,-95.75103759765625,-1.681039810180664,3.136019395649395,-26.213678638240317,-25.63798077612016,-30.57593604601987,-94.55159124863243,0.4326856086749427,0.9278289472788278
0.284146,-96.00162506103516,-1.8007293939590454,3.137450390364414,-25.029841222989734,-36.06571083670138,-22.784599240908342,-94.4397792426584,0.43464839393180194,0.967347929356419
0.286691,-96.22677612304688,-1.8222755193710327,3.138595664403528,-22.21098629403233,-47.613436534361064,-16.523614130662356,-95.31104177348257,0.43574847607560013,1.0015697133444377
0.319517,-96.39852905273438,-1.8243460655212402,3.138953396880396,-18.106197989658284,-58.55006179188513,-14.57725268892426,-93.24573704149793,0.43656233310624215,1.0340622121065532
0.322505,-96.53005981445312,-1.8936084508895874,3.13836536796158,-15.037113957815585,-64.73481174571,-17.84942044290624,-93.61167606565053,0.4378049907089539,1.0693000804681783
0.325295,-96.670166015625,-2.10990047454834,3.136755627319423,-14.747256097365876,-61.893302786822964,-26.79149385900318,-94.79477955379403,0.4402567156724192,1.1122128215861928
0.32799600000000007,-96.87213897705078,-2.5350611209869385,3.1343916302712644,-18.325032128023615,-49.94300915457731,-39.968996607729,-95.98345404517649,0.4445059159959981,1.1665734798995673
0.359575,-97.1901626586914,-3.164860963821411,3.1320562130370058,-26.726361175077937,-29.972359059255012,-53.10610049506148,-94.99091387944678,0.45055367551114867,1.2325018040299218
0.362686,-97.63200378417969,-3.918227195739746,3.130528257091875,-35.63269050370091,-7.381028558648647,-61.89567286246496,-95.76242109258332,0.45780052027687407,1.306344194926013
0.365287,-98.11054229736328,-4.680797576904297,3.1302452773076133,-40.60302940800294,14.225822380654177,-63.789971187254636,-97.15549943980557,0.46528126625012034,1.3821115631380851
0.368079,-98.52066802978516,-5.349640369415283,3.131191298593876,-39.48397462948264,30.53336347692318,-58.715878294365524,-92.49567985022682,0.47201174875617713,1.4536349160884574
0.399122,-98.80310821533203,-5.874682903289795,3.1327260473419227,-33.90989822897025,39.93438803920454,-50.195183153828765,-51.00129062833161,0.47753011634334086,1.5179652150777498
0.40169599999999994,-98.94331359863281,-6.27772855758667,3.134194082417027,-24.214234673820172,41.22207677323787,-41.943518919415055,-98.64256005545964,0.4819276518841519,1.5755998478830162
0.404954,-98.95103454589844,-6.621549606323242,3.1349062807256356,-13.93312401528339,34.629820658057106,-37.90879981818888,-98.08584433546669,0.4858940748342543,1.6308020256995803
0.407874,-98.91510772705078,-6.980478286743164,3.1347779740076436,-7.851023266947333,20.69222884528288,-38.622236982658805,-97.98352171693224,0.4901725144471826,1.6882138797316286
0.439182,-98.95146179199219,-7.3761725425720215,3.1342383274061265,-7.6261580715448805,1.6431018963631787,-41.69611239220427,-97.6566476736185,0.4950855633813765,1.749881924015988
0.441328,-99.11445617675781,-7.791386604309082,3.133613168636076,-10.932114771350914,-18.251173877433683,-45.31518033148932,-95.81949703581603,0.5006234472100632,1.815784617697606
0.443445,-99.3741683959961,-8.211904525756836,3.1331557674478177,-14.486513625800638,-32.91333606302496,-48.03841090451925,-98.36965261192437,0.5065149564355734,1.8842571607798437
0.445564,-99.66169738769531,-8.625017166137695,3.1330118200721366,-16.037436142898972,-40.9072938449595,-48.99943218111839,-95.10388836583452,0.5123538039559702,1.9527689950522895
0.479345,-99.9410629272461,-9.020090103149414,3.133044954792636,-16.977884889718027,-45.597079314008674,-48.94703438490064,-99.09464540399456,0.5178897053768731,2.0197442284530385
0.481706,-100.2278060913086,-9.404207229614258,3.1330302609532037,-17.856190867921015,-48.74925601219916,-49.17185689162078,-99.19723477866452,0.5231145969478211,2.085113160278861
0.483812,-100.53327178955078,-9.80410385131836,3.132774301798901,-19.283717479926604,-49.938183625928694,-50.796188574371115,-99.41138013836915,0.5282073230311817,2.1499799614744597
0.486143,-100.87429809570312,-10.244461059570312,3.1323738198499895,-22.169719998614404,-48.55883375323379,-53.28334048892873,-53.519781729710274,0.5332689866924051,2.2149715771326846
0.519375,-101.257080078125,-10.722907066345215,3.132030633882712,-25.35277939713711,-44.627329055650264,-55.47673621256785,-100.8469044074701,0.5382491389286582,2.279769075110631
0.521651,-101.6457290649414,-11.224930763244629,3.1318505353630974,-26.755379233766735,-38.06496526337205,-56.738637567389794,-99.34324649458729,0.5430365827434278,2.343668662559725
0.524006,-101.98429870605469,-11.741783142089844,3.1318441207514987,-25.435153186074754,-28.688303985860127,-56.96511297988908,-100.71066206323093,0.5475318806955223,2.4060334473832645
0.52635,-102.24765014648438,-12.262760162353516,3.13207458917225,-23.06579300639589,-18.335987751452315,-55.76192051607797,-99.328040202314,0.5516111717143062,2.466066831456182
0.55933,-102.45964050292969,-12.77016830444336,3.132489448037635,-21.330964230800376,-8.148792194003208,-53.441889670132234,-101.49303776669926,0.5552059085381332,2.523311981144744
0.561711,-102.64665222167969,-13.2556734085083,3.1330463690940142,-20.416789514171068,1.403854457002795,-50.2638026493253,-95.2423938899014,0.558285728757251,2.5775476783641205
0.564052,-102.80884552001953,-13.71352767944336,3.133694420896467,-19.165126612914968,9.842154891147572,-46.52560938072606,-30.113199878127222,0.5608550930444353,2.628769597183505
0.566556,-102.91857147216797,-14.13645076751709,3.1344781273387685,-16.216815693523724,17.63093976683046,-41.9536446748596,-102.4565782769752,0.5629020282943715,2.676870435471389
0.59838,-102.9520263671875,-14.508320808410645,3.1354465269382628,-12.172068167048677,23.857152384011904,-36.25471583141397,-102.12549263933776,0.5644084786450224,2.721703919716201
0.600813,-102.92029571533203,-14.820646286010742,3.136378126578953,-7.89915390248112,27.75520793768259,-30.74981558681547,-80.60054712991607,0.5654640832127136,2.7637993094288107
0.60321,-102.85919189453125,-15.089486122131348,3.137155976168415,-5.613829382142329,30.028745685948053,-26.147275539129453,-102.31585519247285,0.5661900987976571,2.80389015607871
0.605476,-102.81842041015625,-15.339973449707031,3.137555027501874,-5.452294554497882,29.94893151040187,-23.786033039279147,-101.89190169417363,0.5667550195356432,2.8430144308577048
0.638497,-102.8094253540039,-15.604636192321777,3.1375076905150165,-5.274047107728059,27.714213142284173,-24.06279742708994,-101.3384162953953,0.5672976695602282,2.8820342696342847
0.640779,-102.81171417236328,-15.907186508178711,3.1371349891924267,-5.162757286052341,25.840434413308508,-26.258836433937855,-101.83870132603482,0.567875006194728,2.9213061465152506
0.643126,-102.82820892333984,-16.25242805480957,3.1366711188003866,-6.0178564158897405,24.38146161036418,-28.99605864948256,-92.64868800151658,0.5684614491041381,2.960671514939528
0.645494,-102.86318969726562,-16.632863998413086,3.136195396376217,-7.115621067880292,25.16359340241151,-31.809727757312633,-101.53075095221739,0.5690145343616981,2.9998641383505387
0.678473,-102.89765930175781,-17.054033279418945,3.1356882844289395,-8.155266359562734,27.846891274458965,-34.81021278422631,-97.479855840628,0.569501032716632,3.0386731352849568
0.680811,-102.92835998535156,-17.520532608032227,3.1351144412958734,-9.162876356490527,30.710261961331927,-38.204888518708934,-101.62241452932652,0.5698950746586685,3.0769317790374604
0.683195,-102.96728515625,-18.02157974243164,3.1346035017743175,-10.163804720862752,31.126702010122187,-41.23380762313737,-100.78214834992957,0.5701621055224028,3.1144171470343327
0.685557,-103.02511596679688,-18.523090362548828,3.1344109053566243,-11.198177960279592,30.353053313024017,-42.3939015932857,-101.92567739608421,0.570273795811168,3.150943259456946
0.718444,-103.0891342163086,-18.985126495361328,3.1346904399565236,-11.428952976861398,29.195418210976893,-40.76907130672595,-99.56014434646319,0.5702396456728753,3.18656004715889
0.720889,-103.11942291259766,-19.390657424926758,3.1351542141834017,-9.036067064360068,28.509627944719885,-38.040806884277714,-94.7923673905131,0.5701020232772931,3.2215245537776602
0.723237,-103.08589172363281,-19.754764556884766,3.135646081844395,-5.487643771660459,27.371375211989967,-35.12316522180713,-96.22468132279386,0.5699026207416155,3.256092237257768
0.725767,-103.04222869873047,-20.080806732177734,3.1361510429887107,-5.051790190814906,25.075676914962397,-32.12695930840846,-101.86062990870037,0.5696766083738881,3.290480197401292
0.758624,-103.05083465576172,-20.36751937866211,3.1366933943588,-6.42871321192034,23.180304542925736,-28.927309380391797,-102.14441916836826,0.569456648910604,3.324891988289197
0.76092,-103.0893783569336,-20.621522903442383,3.137218150898486,-7.917354649071912,22.74600867209777,-25.838542450908413,-99.0418839534023,0.5692634497156204,3.359458098441025
0.763252,-103.13732147216797,-20.854663848876953,3.1376924319525354,-9.972602112784708,23.882739980190067,-23.047826193784168,-101.73562050754734,0.5691049427758743,3.394230047397802
0.765815,-103.18265533447266,-21.074193954467773,3.1381027681318865,-10.635794698172727,25.68239408119817,-20.63204463341131,-101.17562062789565,0.5689784677873889,3.4291932997553514
0.798712,-103.19141387939453,-21.27901268005371,3.1385087893719206,-9.589087844662139,27.55410326285532,-18.233196819538207,-99.81740739021276,0.5688905731643386,3.4643910130402538
0.801491,-103.169921875,-21.462993621826172,3.1389551830855975,-9.539974515661514,29.94994579349362,-15.59065468626822,-101.9352495420909,0.5688599438006355,3.499943011979258
0.803882,-103.16674041748047,-21.616912841796875,3.1395505572603595,-12.021559826045568,32.62627687258766,-12.070886598457754,-102.1988881138994,0.5689436631849947,3.5362115607923013
0.8063,-103.18448638916016,-21.727235794067383,3.1402980342335414,-13.52023651863518,36.001500228314086,-7.653839974477296,-99.91145130131854,0.5692108800607202,3.573638318591059
0.8387640000000001,-103.1710433959961,-21.790407180786133,3.141111196987805,-13.488882535250237,39.31470888147138,-2.846017950956311,-102.07096413843435,0.5697087184536699,3.612530903849833
0.841714,-103.11788177490234,-21.809288024902344,-3.1413170708324354,-12.19627008859897,41.18802145003619,1.6282034395143825,-102.16540572823047,0.5704396203815671,3.6529191505957885
0.844187,-103.02919006347656,-21.784826278686523,-3.140579401287175,-9.727706533867547,41.32268887480675,5.981369972230355,-89.2895293841971,0.571424080121685,3.6949464719845526
0.84656,-102.90636444091797,-21.729408264160156,-3.140137486936251,-6.730761679378053,40.73360213436607,8.579814696671448,-77.90460911089377,0.5725519044838957,3.737936435290166
0.879676,-102.742919921875,-21.67361068725586,-3.1399432098467632,-2.270466511016486,39.371498489325454,9.709848150508902,-102.16171017851288,0.5737269354141098,3.781293869504878
0.884012,-102.51676940917969,-21.632572174072266,-3.140075638362144,3.681778040489054,37.86352249418086,8.910617833648091,-101.41283401507411,0.5748008814045283,3.824089997681851
0.887049,-102.24488830566406,-21.6231689453125,-3.140450872804139,8.27014758008141,35.11255793802609,6.688783763625977,-100.74075446721315,0.5756617798529744,3.865614986690049
0.889699,-101.9911880493164,-21.641462326049805,-3.1409306169348,10.313184373105516,30.852726047040054,3.868720744959126,-96.9304542533026,0.5762733079273406,3.905627227272605
0.918923,-101.78410339355469,-21.679494857788086,-3.14143897584161,11.035707396718852,25.807458259995688,0.8962178291362283,-97.82278546640751,0.576642062705517,3.9441525016896843
0.922024,-101.60475158691406,-21.723798751831055,3.141435850255882,11.952959113569252,20.89488226550445,-0.9128342920046941,-86.81471007202035,0.5769203251187748,3.982132365355136
0.925096,-101.43617248535156,-21.746971130371094,3.141469443264488,11.855368516934464,17.48285443543541,-0.7160817283391911,-100.74684827169004,0.5773630075065572,4.0211627939317935
0.927667,-101.28357696533203,-21.729488372802734,-3.141389522393405,11.272965970370292,15.229226688600534,1.1787950280958206,-100.05095792476178,0.578194879750911,4.06266638905171
0.95885,-101.13851165771484,-21.663318634033203,-3.140860220003781,10.852269006179819,13.585136122354996,4.244314128078597,-100.02564237367989,0.579579261279682,4.107693770464189
0.961271,-100.9886703491211,-21.54048728942871,-3.1401488297764835,11.55182722625628,11.047548383418716,8.35429465688232,-19.942131325722258,0.5816629638316962,4.157202098711722
0.963532,-100.82320404052734,-21.351118087768555,-3.139290445104924,12.929394419577813,8.537772321009081,13.299292705589961,-100.36153459053175,0.5845593810762878,4.21194778686718
0.965657,-100.64376831054688,-21.089237213134766,-3.138271988183147,14.38202880697237,5.501967105236799,19.148565111724977,-99.09114279162752,0.588378206603719,4.272671124455343
0.999086,-100.45929718017578,-20.735307693481445,-3.1369113411815346,15.371774444125991,3.1425634203771082,26.945333624773962,-99.50017764631079,0.5933596218969638,4.34093917286279
1.002068,-100.25572967529297,-20.26523208618164,-3.135204200587777,17.022311855174376,2.5192247753527006,36.69724378773909,-99.29435282854402,0.5997287495010659,4.418239466426203
1.005004,-99.968017578125,-19.670190811157227,-3.133230155206906,22.887716314355316,4.091137744430952,47.89937898886906,-98.26299240954633,0.6076207808636003,4.505508630598663
1.007571,-99.50984191894531,-18.961990356445312,-3.1313096537138625,33.498850614529715,7.036128764998744,58.63052825049704,-97.9569822011781,0.6168803960166547,4.6018664481050635
1.039085,-98.91067504882812,-18.168703079223633,-3.1295775983332033,41.543659154835,9.653089278506096,68.09456813806095,-97.16028433074426,0.6272839235118719,4.705993477611241
1.042153,-98.30531311035156,-17.286035537719727,-3.127718707197901,44.81260135198144,10.382836934714014,78.14973357753277,-97.39909609709537,0.6390113219747515,4.819092306641044
1.044843,-97.72235870361328,-16.2947998046875,-3.1258827508122784,48.16523385702805,10.482502201309194,87.9682193018853,-96.14433179895022,0.6521861354871723,4.942022366820648
1.047407,-97.09306335449219,-15.21239185333252,-3.1241115066354803,52.805739511215585,12.366305086665498,97.2579254410738,-95.89547913177479,0.6668240597511038,5.074973220923783
1.080311,-96.42010498046875,-14.048394203186035,-3.1223094091923422,54.61695199984664,17.537017835553613,106.54281629689743,-94.82743549253362,0.6827047101293316,5.21665208139574
1.083713,-95.78205108642578,-12.79985523223877,-3.120511587655033,52.53881913354607,22.945810488340857,115.70807638940829,-94.69184368495247,0.6990615698984144,5.362320864406707
1.087367,-95.21244049072266,-11.471404075622559,-3.118888177572795,49.77763319929838,26.60183145858297,123.88035675019353,-94.3229003936605,0.7146761161869803,5.504353286073296
1.091294,-94.70317840576172,-10.092050552368164,-3.1176902448758717,45.43473937781581,29.934051943294996,129.72138426422669,-93.00991036510281,0.7284856080484544,5.6360253071631075
