Time [Sec],Roll Angle [Deg],Pitch Angle [Deg],Phase Angle,Angular Velocity X [deg/s],Angular Velocity Y [deg/s],Angular Velocity Z [deg/s],EKF Roll Angle [Deg],Step Frequency [Hz],Phase Variable
0.0,-107.69620513916016,7.382495403289795,3.1329217421052578,-13.345965949509598,-50.5737293131038,-53.50552995772383,-106.62990607837641,0.4,0.025132741228718346
0.002569,-107.79857635498047,6.625505447387695,3.1317673106850084,-14.302866914491922,-58.021063640667634,-60.68723481337128,-106.70343217468258,0.4002278048364452,0.05169682245869397
0.038594,-107.78362274169922,6.46743106842041,3.131217148368295,-11.882641462290325,-59.58987613074952,-64.07671618899012,-106.36860273541298,0.40069187077277946,0.07975968936016244
0.041482,-107.76714324951172,6.012320518493652,3.1314451994811754,-9.100007880275143,-55.6941991904573,-62.65864597389041,-106.76053467404381,0.401341454780646,0.10901735880562666
0.044482,-107.7501449584961,5.6054205894470215,3.132043904238708,-7.506692086545834,-50.39796805519186,-58.952223330215475,-104.111001661676,0.40210769675365565,0.1390488264305834
0.048588,-107.76012420654297,5.253894805908203,3.1329748732579823,-7.7528691797060185,-44.77078351878804,-53.20921927605575,-106.830025541013,0.40289995456224476,0.1692919007744726
0.078726,-107.82331085205078,4.978254795074463,3.1342924832835264,-10.102835037236632,-38.06494818789913,-45.09994399526929,-103.8576362098942,0.4035974000411648,0.19898903070786986
0.081176,-107.95537567138672,4.781506538391113,3.1357779872692495,-13.592907170083178,-28.815202070449793,-35.96636915031812,-75.50075943807443,0.4040999004305926,0.22750510631111978
0.083573,-108.12144470214844,4.601983547210693,3.1364434073151375,-14.792471949671361,-20.959956892821747,-31.89936032979071,-104.91767185781538,0.4045257254375337,0.2555709893083441
0.085942,-108.33932495117188,4.403030872344971,3.13778213336253,-20.905465643623383,-3.647859321070771,-23.653484680698586,-103.14979701950058,0.4046874927165497,0.2820045040434925
0.118825,-108.6183853149414,4.20060920715332,3.1383886848103226,-20.064027319012833,11.908566299058753,-19.93956761195686,-106.02357544651471,0.4047464694989647,0.30780233117858685
0.121555,-108.81640625,3.9266908168792725,3.138727685337052,-18.103942319684887,28.23852407618374,-17.86232608534298,-94.64335577627907,0.40477302324396086,0.3334001439818844
0.124277,-108.95368957519531,3.601823568344116,3.138918501013423,-12.48758534066283,41.48042526349902,-16.693668765522748,-100.8572995948394,0.4048153637100216,0.35909881610002753
0.127237,-109.0037841796875,3.2447867393493652,3.13887002204857,-7.431273137730553,50.682312245434076,-17.004119646320046,-108.22715477006348,0.4049613495857372,0.38545137186321365
0.15874,-109.0346908569336,2.8521125316619873,3.1386405639579564,-5.303517239562549,56.99673675574624,-18.442429419477794,-107.91487060257757,0.4052902257741639,0.4129622339151445
0.161162,-109.09182739257812,2.43017578125,3.138237421539942,-5.576918612980758,57.966715825441845,-20.971960950288043,-107.92704255617022,0.4058886645516408,0.4421874715663112
0.163509,-109.17200469970703,2.0020711421966553,3.137755725400191,-6.371249122885731,52.98278484469149,-24.00046853581899,-5.849444687742005,0.4068135922976614,0.4735017009249266
0.165841,-109.26185607910156,1.5944249629974365,3.13732513907351,-7.683562396424253,43.272912788520486,-26.715840976208824,-105.5068208229225,0.4080685061431914,0.5069474090197931
0.198944,-109.3627700805664,1.2247273921966553,3.136967767240557,-8.905628380459397,30.802213383033223,-28.979860855865876,-107.66952218376208,0.40964215462587833,0.542474634466093
0.20169,-109.45435333251953,0.8946614265441895,3.136731183525846,-8.414209076281674,18.606676685996383,-30.48784368119963,-70.3888555971132,0.4114908369554221,0.5798288237881921
0.204359,-109.52899932861328,0.5872272253036499,3.136517224147762,-8.507826210366806,9.909200881814064,-31.851381665965956,-108.89407016932664,0.413611014347858,0.619005023036933
0.207228,-109.62086486816406,0.2717384099960327,3.1362729833463643,-9.55049642207792,4.934402717757658,-33.41216868377308,-2.628074028171512,0.4160241819793954,0.6601553489255509
0.238873,-109.7189712524414,-0.07052000612020493,3.135832635994454,-9.105852814657382,0.91941976830335,-36.21037082822766,-109.52532910218844,0.41885072778554594,0.7040546302812698
0.241291,-109.78362274169922,-0.4416597783565521,3.135377246064543,-7.124841396372985,-2.888279533002353,-39.096276016719784,-108.90375260203514,0.4221040077560851,0.7508127585795393
0.24366,-109.8306655883789,-0.8220756649971008,3.1350471797205546,-6.727175403176973,-6.347159472569919,-41.190166129435575,-108.32290535558168,0.4256976168903242,0.7999136476878832
0.24610899999999997,-109.89662170410156,-1.1902598142623901,3.134930682104773,-6.812916902262258,-10.06599385062723,-41.948474221657904,-102.25811466040089,0.4294680051446251,0.8503510658871356
0.279034,-109.95204162597656,-1.5347391366958618,3.1348750445101774,-5.030041160950292,-13.961646031483717,-42.3201492106279,-78.71897540636577,0.4333470658578956,0.9017081937646994
0.281734,-110.01863861083984,-1.8220722675323486,3.135921830022965,-7.989562555203641,-11.280270003913975,-35.74700737983941,-109.15051382439775,0.43644792978505537,0.9484194956024695
0.284462,-110.12020111083984,-2.019412040710449,3.136795494659801,-6.977282843317676,-9.747545672085495,-30.26753592952087,-104.25916891421114,0.43886789740469784,0.9910474327918014
0.287453,-110.1705551147461,-2.1819071769714355,3.1376572560817637,-5.908076492907417,-6.906672347678084,-24.841568766065624,-108.83154668384519,0.44059615936730573,1.0294813062098767
0.31898,-110.20450592041016,-2.3264434337615967,3.138365693093634,-4.604659113876013,-1.3420048529125084,-20.37591595463042,-103.59603756118457,0.44176028861874705,1.064479219167555
0.321359,-110.21734619140625,-2.478630542755127,3.138849134085026,-3.0370451085500507,3.888758812436651,-17.325338320343867,-103.33101419919272,0.44256255962888563,1.0972766541382815
0.323691,-110.2214584350586,-2.640839099884033,3.1390799556316766,-2.5800194353813377,7.285200150819722,-15.868284800556314,-109.39007868580867,0.44323619936311526,1.1293162831404053
0.326071,-110.22261047363281,-2.818842649459839,3.139062359251992,-1.187578224481634,9.120344768528856,-15.979577610439794,-10.32947583031933,0.4440124324354607,1.1620428511299972
0.359111,-110.20040130615234,-3.0101442337036133,3.139090796490505,0.18916433021932455,10.829793414942246,-15.796803455797546,-109.97768781927016,0.4448503771006741,1.1952059366555312
0.361916,-110.17845916748047,-3.1955385208129883,3.139350522461337,-0.06081006130480283,14.56704155611509,-14.154060998139439,-100.53060285547348,0.44553590135520266,1.2274639861122227
0.364676,-110.1453857421875,-3.408515691757202,3.1388190051101597,2.540501881834348,15.437999958318436,-17.504168040740435,-108.86896412151714,0.4468218892439921,1.2635379326124356
0.367559,-110.12518310546875,-3.631176710128784,3.1396289588506012,-1.871451768902807,21.55362839774279,-12.390356744054053,-101.53990554816443,0.44741479285459795,1.295337903161409
0.399062,-110.18014526367188,-3.8032631874084473,3.139708527648854,-3.139328898918284,25.998213490683096,-11.894232293311836,-109.00233449867703,0.4480357562303612,1.3273514316470894
0.401425,-110.17989349365234,-4.012033462524414,3.140180709309037,-1.2746645237814715,33.91286594616462,-8.913388329130177,-109.20275145664111,0.4482980117560368,1.357150148519118
0.403746,-110.10830688476562,-4.214909076690674,3.140523272928113,1.7630357493203714,41.60090980045805,-6.746448489467456,-108.80244681234798,0.44833438700911254,1.385546095781822
0.406072,-110.03194427490234,-4.429225921630859,3.140837094043482,0.376696778835545,48.62186273889467,-4.7633248351822335,-108.20778891847986,0.44817573074068723,1.4127189093787504
0.439167,-110.0148696899414,-4.6556010246276855,3.140721433495215,-1.3722535195906733,50.319933143924466,-5.491639432324917,-107.78039378728359,0.4482488631525159,1.4413381255384747
0.441988,-109.99003601074219,-4.915539264678955,3.1400343725597764,0.44416640131313584,46.23730368076524,-9.820240229195587,-108.7738640403396,0.44910538284692786,1.4748841042069125
0.444842,-109.92440032958984,-5.22027587890625,3.1390377968310066,2.1332115117675525,38.30304858236577,-16.09104459014711,-105.78977944675351,0.4510101637407435,1.5150703189611223
0.447681,-109.89146423339844,-5.550837993621826,3.138142991501736,0.22809667529266167,28.993852498380647,-21.720252570092548,-27.943904437768055,0.45379821294270944,1.5609259530846533
0.479052,-109.92633056640625,-5.864471435546875,3.137848188876386,-2.174329464014441,22.020184959568024,-23.58392774173847,-109.66867578995927,0.456802450139656,1.6083151147396502
0.481305,-109.96192932128906,-6.1290130615234375,3.1377722123866247,-1.2935964207785717,14.42688095170455,-24.070250871021717,-108.88727648993904,0.45976413046481834,1.6556256454732845
0.483468,-109.94590759277344,-6.304276943206787,3.1388007797223607,0.750691630884968,10.695985740233466,-17.587277782561152,-108.5424803027555,0.46155608712143764,1.6957726735023049
0.485735,-109.92813110351562,-6.330660343170166,3.1402319970918113,-0.84976107019677,7.339199626397843,-8.569988615776738,-19.49265894543362,0.4618429598322515,1.7265755721543283
0.51935,-109.91191864013672,-6.251777648925781,3.141520711426726,2.3790509374506446,5.538270414449063,-0.45305498538340827,-109.61612648971051,0.46086605740173353,1.749455962150773
0.5220050000000002,-109.7900619506836,-6.114077568054199,-3.1402609526443173,7.317075789902525,8.756305077277286,8.377079314179838,-108.49573522679262,0.45859988609748426,1.7641742563128051
0.5247330000000001,-109.58306121826172,-5.922608852386475,-3.1386922198926324,12.387105574009126,17.452571084202866,18.21085014812122,-107.43903445862618,0.4549745969337278,1.770210573366833
0.527429,-109.30963897705078,-5.67480993270874,-3.1370182186555757,17.048203394770603,27.8805248334794,28.64979879441418,-106.84353865617194,0.44998319365492384,1.770210573366833
0.559171,-108.96719360351562,-5.35306453704834,-3.1353351212970555,23.289647333801177,36.21163099812953,39.06853861850036,-107.28081138255718,0.44371585545446873,1.770210573366833
0.561426,-108.5443115234375,-4.945224761962891,-3.133787768674653,29.653437036339607,40.85775106781481,48.5405869028661,-91.19795446570345,0.4364095825419665,1.770210573366833
0.563744,-108.08446502685547,-4.4480085372924805,-3.1323085833796704,33.75786846332952,42.16157270866771,57.49589039538536,-104.82743717707943,0.4282177130178005,1.770210573366833
0.565935,-107.62051391601562,-3.8482015132904053,-3.1307034870313584,37.12112874272467,42.252035149129945,67.14744629642279,-88.20547382457906,0.4190936226182569,1.770210573366833
0.59941,-107.12910461425781,-3.1297919750213623,-3.1289254862234124,41.27723396588031,41.805791569896336,77.75580924734145,-64.07258693162655,0.4089533040104835,1.770210573366833
0.602087,-106.60930633544922,-2.281209707260132,-3.126912199892467,44.0842265637967,42.15386142509477,89.678519160624,-106.2012209156394,0.39766285381438055,1.770210573366833
0.60474,-106.09625244140625,-1.2953534126281738,-3.12481285990937,45.72611524780855,41.236765095047986,102.01171661283516,-105.00943726712755,0.385238744801367,1.770210573366833
0.607561,-105.60655212402344,-0.17915615439414978,-3.1228781716566236,45.91497680854857,38.12765273957443,113.25099096757707,-104.30822836166992,0.3719309861143444,1.770210573366833
0.63949,-105.15385437011719,1.0296072959899902,-3.1213650511573445,45.090139258715745,35.045837235118825,121.88534045590285,-104.12532915074792,0.35820780394453083,1.770210573366833
0.642112,-104.72334289550781,2.26922869682312,-3.12050614370515,45.15275843302642,32.66850793222585,126.5421497716392,-100.64030751019908,0.3447187779205341,1.770210573366833
0.644586,-104.28448486328125,3.4785115718841553,-3.1203650782455603,46.24709475694045,31.914492613896876,126.85510903940919,-102.6228869673512,0.3321251617799156,1.770210573366833
0.647294,-103.83566284179688,4.609425067901611,-3.120897391706991,47.243271017197635,32.35359523035324,123.14083850837791,-102.87046883872425,0.3209925284437861,1.770210573366833
0.679247,-103.40373229980469,5.6426825523376465,-3.1218249826035267,46.545785759534276,33.0842444715316,117.13075015200859,-96.78899339742794,0.3115767588425323,1.770210573366833
0.681782,-103.04779815673828,6.594123840332031,-3.1227788348365944,41.51545388865743,34.65873284881377,111.09373035974191,-100.44619550920284,0.3037618738438861,1.770210573366833
0.684309,-102.82032775878906,7.499460697174072,-3.1234528688694576,34.07638408998931,36.70336705233001,106.87629345293414,-77.83760735781195,0.29715195489473195,1.770210573366833
0.686446,-102.72286224365234,8.397443771362305,-3.1237814648680367,24.756529495804383,38.982532876471566,104.84037798589341,-28.16791034950084,0.29132233498788895,1.770210573366833
0.71854,-102.7579116821289,9.315905570983887,-3.1238016608015258,14.43524964098511,38.59085909361177,104.75720677237017,-102.24342743302617,0.2859137632615764,1.770210573366833
0.721158,-102.89012908935547,10.269160270690918,-3.1237694460018672,5.9503732931163675,35.095697616059915,105.08196860702593,-102.05568005567112,0.28083312840633795,1.770210573366833
0.723682,-103.06918334960938,11.227994918823242,-3.124021707735154,-0.7671698357835941,31.30082743772791,103.77465673950715,-99.60582390195631,0.2763120798642703,1.770210573366833
0.726078,-103.25991821289062,12.148355484008789,-3.124623536042447,-4.086429609658698,26.49175271482446,100.40500340304887,-101.76464431113733,0.272633173790319,1.770210573366833
0.759476,-103.40190124511719,13.017243385314941,-3.125457178306646,-3.7194879417835174,20.505107275233918,95.60279985045045,-102.34579396970685,0.26996093938446786,1.7705504769287401
0.762163,-103.47018432617188,13.831332206726074,-3.1263769107872337,-1.0163004521512802,16.581732210309994,90.21204572726121,-102.43172735175418,0.268317072781938,1.7771839045232902
0.764228,-103.46340942382812,14.574746131896973,-3.1276132422574414,3.3338987902571446,11.70035822749467,82.8755824453996,-101.13527926490873,0.2679336562865501,1.7916336865266276
0.766187,-103.38777923583984,15.232553482055664,-3.129072326614235,6.219176668562689,4.89865606896275,74.17032876329993,-83.33189048797848,0.2689037157083064,1.8145635177572836
0.798384,-103.27204132080078,15.80270004272461,-3.130806325461704,8.020616010265103,-4.738426234336598,63.825740887938,-102.67995695052113,0.27128168809389575,1.8464004776671417
0.80065,-103.12169647216797,16.28914451599121,-3.1324387875543334,8.493771388602212,-13.925106226971442,54.08656049003847,-97.41658168696894,0.2746577723259358,1.8846581716770807
0.802875,-102.94876098632812,16.693326950073242,-3.1343832398558558,7.941967235746053,-25.605880594568394,42.52567643294275,-97.9231465255532,0.27893670995656267,1.9288007865239831
0.80521,-102.74703979492188,17.012880325317383,-3.1360563772709455,6.760531058875553,-37.0723782675237,32.59223520976432,-101.274669184638,0.28343936545026216,1.9746179157416084
0.83964,-102.51923370361328,17.279460906982422,-3.137649241198518,5.7166869084008445,-48.76547429638336,23.163406654919125,-88.15127159761244,0.2877999441373946,2.0198252602441333
0.843937,-102.26408386230469,17.503446578979492,-3.138904855844747,3.5943742441145163,-61.393899845279144,15.748652329696249,-98.77838521569889,0.29159559842328714,2.061757063288498
0.84846,-102.00916290283203,17.7105712890625,-3.1400370233707764,-0.7121164833608814,-75.5930981485486,9.092190728770063,-101.21521229229137,0.2947911420944601,2.1001567481281773
0.852881,-101.7683334350586,17.888629913330078,-3.141141347937199,-5.311507280230994,-88.73378105500619,2.631516500402295,-46.0412523180778,0.29750846397524544,2.1357524587713512
0.878676,-101.5415267944336,18.01383399963379,3.140851020480752,-9.996491553180473,-98.55626927021235,-4.31474874634706,-92.43533155186451,0.299965278584112,2.169882088320354
0.883042,-101.32939910888672,18.064916610717773,3.1396312488749514,-12.81961449659549,-104.17813650434732,-11.387433964444183,-100.78878197385288,0.3022915527246406,2.2033458741312324
0.887476,-101.09160614013672,18.03398895263672,3.138416406270207,-11.545919112624219,-105.05619830328747,-18.39727503887484,-100.23065397366939,0.30457352444023944,2.236677463711722
0.892647,-100.83894348144531,17.923233032226562,3.1373660619619046,-11.917911705390624,-102.12811669667052,-24.419895084823843,-98.63811747727108,0.306773183955343,2.2696352509950066
0.919499,-100.70299530029297,17.73621940612793,3.13629269569268,-18.247705848882607,-94.15344736895209,-30.580283461426585,-99.78200293223047,0.30901157437246146,2.3029746003962264
0.924934,-100.74562072753906,17.437711715698242,3.1349505806212403,-24.288692273509774,-80.47620529186582,-38.340594132233335,-99.71018112408726,0.3115619961658493,2.3384151429740063
0.927568,-100.90531158447266,16.949127197265625,3.1326443038307277,-29.36763801580418,-62.8531629312632,-51.735804038111425,-99.69630953964405,0.31510857060831987,2.380274944967604
0.92995,-101.13107299804688,16.179052352905273,3.1293957985764105,-31.105641121816454,-45.08525567345918,-70.67676213491929,-85.75308724639285,0.3201874576647641,2.431985388907605
0.958941,-101.33705139160156,15.13270092010498,3.1259566972972954,-29.62471267578512,-32.68496868812558,-90.79265961803648,-100.62526543206677,0.3267644840580494,2.493428035802252
0.962521,-101.42977142333984,13.89964485168457,3.1229928341763267,-21.370876441215348,-25.22154414242448,-108.1052767110512,-100.45183333466784,0.3344037584071819,2.5619582302016517
0.966312,-101.26852416992188,12.572818756103516,3.1208493555802885,-2.707880149757153,-21.262168857932718,-120.37525393230473,-100.12428649956692,0.3424996475736881,2.633837409876094
0.969097,-100.79744720458984,11.22541618347168,3.1197426183339814,19.666373705534692,-13.57287422524753,-126.2099020496531,-97.94221164016176,0.35036791556773084,2.704795083262707
0.998505,-100.1680679321289,9.941767692565918,3.120322980240699,36.91387006745522,2.3815119399859648,-122.08948114981618,-99.27166503923168,0.35717237544950786,2.769563031007204
1.001416,-99.58193969726562,8.88162612915039,3.1232599206996827,43.543173128694136,20.603964018186097,-104.61141638453624,-97.42780946042448,0.3621648218984282,2.823373299397489
1.003731,-99.13041687011719,8.23604679107666,3.1286209384837496,43.92703317514344,33.63896853025794,-73.6802900111082,-97.38481079844875,0.365000222131865,2.863944131361488
1.006221,-98.80399322509766,8.037458419799805,3.1339190760713094,37.258251620501845,31.826980815156087,-43.44137257420969,-97.86841678998374,0.36621850485307517,2.8945324677835487
1.03952,-98.77025604248047,8.168107986450195,3.139216690738451,12.053919554785795,23.92397212466214,-13.445881371783129,-97.84319223588732,0.3661999546530476,2.9174261007283913
1.042951,-99.28376770019531,8.590221405029297,-3.1392383347002673,-26.13033496244053,11.953795811742578,13.392663952864975,-94.36190532587196,0.36531993293227083,2.9349057829280665
1.045874,-100.10824584960938,9.235605239868164,-3.1352401878416476,-45.95311316977934,0.28506552225159265,36.43683599544319,-80.3281399569491,0.3638665687287651,2.9487277546688175
1.049175,-100.79597473144531,10.005456924438477,-3.1327780069761597,-51.58779383879725,-8.747825397422714,50.90752407293691,-100.12516666816478,0.36219991326469086,2.96111826032892
1.078618,-101.40608215332031,10.737237930297852,-3.132170891979498,-58.59397990824831,-14.036138635892815,54.74337880138358,-100.28404258971348,0.36066740430286115,2.974246914269695
1.08095,-102.03752899169922,11.376313209533691,-3.1323854981185826,-61.40237611003913,-26.45284966485936,53.82949607534129,-100.57012097555148,0.3593944324887481,2.988909997825749
1.083224,-102.53192901611328,11.983075141906738,-3.133217455092288,-57.801992153228646,-46.75939651073184,49.20248345985912,-101.57416124611207,0.3584480025892156,3.005544821563686
