Time [Sec],Roll Angle [Deg],Pitch Angle [Deg],Phase Angle,Angular Velocity X [deg/s],Angular Velocity Y [deg/s],Angular Velocity Z [deg/s],EKF Roll Angle [Deg],Step Frequency [Hz],Phase Variable
0.0,-87.798095703125,13.670135498046875,-3.122406154316345,-6.2519457817662945,-29.683004925256594,96.52876859622909,-86.92880762685644,0.4,0.025132741228718346
0.004449,-87.7573471069336,15.508262634277344,-3.1237309495878165,-7.900401265778294,-32.049204434897035,89.8204436613877,-84.50556430380601,0.39966767044474927,0.048177394278743846
0.03875,-87.81082916259766,15.2285795211792,-3.125327437025325,-9.26757205740942,-33.20242040455116,81.84061071065675,-86.19859242572558,0.3991358263796251,0.06994757980997605
0.040891,-87.81132507324219,15.871737480163574,-3.1269542564589377,-9.043310479974867,-33.423875628010485,73.65423283942461,-87.02588492800969,0.39850705353002935,0.09107532707861712
0.042945,-87.7923812866211,16.419902801513672,-3.128816151514896,-8.215535095025281,-31.5190553968044,64.27100091993113,-86.175554093639,0.3978777671508933,0.11216034078269436
0.044734,-87.79972839355469,16.86089515686035,-3.1307603137081004,-9.721645594752806,-27.07288740752395,54.49480089673013,-83.65515595099376,0.39732435943336175,0.13368257494917965
0.078955,-87.87802124023438,17.200300216674805,-3.132785969193772,-11.937586919068492,-20.947703533450746,44.34315220504271,-87.13798039904665,0.3969149090853846,0.15607454831251272
0.081916,-88.02590942382812,17.431602478027344,-3.1349434967434835,-15.373418812168673,-13.675174237315042,33.53560386245355,-87.13459869784742,0.39671990300144144,0.17978818820072842
0.084618,-88.24675750732422,17.557126998901367,-3.1369837618110634,-18.76867682027804,-6.617607642945743,23.3034904197015,-87.23654481053829,0.39677538878361346,0.2050634623080727
0.086776,-88.51840209960938,17.597217559814453,-3.1388290986523777,-21.88004143063041,-0.34123230223072315,14.016042511807346,-87.1407403386586,0.39709648104967366,0.2320110774469878
0.119145,-88.82301330566406,17.564884185791016,-3.140457784440998,-24.106662609487056,4.518590619484214,5.775560150838592,-86.63669553807951,0.3976821697865573,0.260641376065796
0.122939,-89.14643096923828,17.47850799560547,3.141462950504502,-25.901702917710814,8.976191064774799,-0.662486301139159,-85.1235612056335,0.3984867705741743,0.290683939573998
0.126062,-89.49341583251953,17.352678298950195,3.1403480438278515,-27.2866381775995,13.969451230157748,-6.381858114214053,-87.3257687708736,0.3994922946586516,0.32203949594737186
0.128663,-89.8513412475586,17.17256736755371,3.1391747885278716,-27.62508771135197,17.4131130813677,-12.447441757589726,-78.36735114806962,0.4007254731946541,0.35488862636721946
0.158759,-90.1789779663086,16.92376708984375,3.1379481335475794,-26.096938752493752,17.91635288167778,-18.83086227757642,-89.61414713572402,0.4022159713056488,0.3894320262524923
0.16095,-90.48090362548828,16.597824096679688,3.1365522921460984,-26.913586905511742,16.44485521934294,-26.130331547345943,-88.4042810370266,0.40403594552069383,0.4261392363121151
0.163052,-90.81229400634766,16.191984176635742,3.1352231568372457,-28.915216530466292,14.429230536779034,-33.14196640020737,-87.47973710263823,0.40619471585267664,0.4650895175082847
0.165084,-91.10095977783203,15.739744186401367,3.1342879841173312,-25.599789773376035,8.202939372422131,-38.128865098152104,-88.73087664236695,0.4085837955910074,0.50562251492284
0.198982,-91.22359466552734,15.30189323425293,3.1341329151437582,-18.284310540192,-1.4514826467457635,-38.990739348759334,-89.38153254313454,0.41092102274125686,0.54597982322492
0.201908,-91.23712921142578,14.947104454040527,3.134895279793349,-13.533192533717049,-6.234501051739259,-35.011061326959705,-90.41203781552827,0.41283010755620664,0.5837938862093628
0.204681,-91.27214813232422,14.721359252929688,3.136427599598734,-12.714520937157442,-10.323202553070631,-27.010935884204642,-88.43280586791035,0.4139690359727544,0.6168888651637303
0.207152,-91.37278747558594,14.647064208984375,3.138529515600441,-16.06004919169359,-14.149816889343922,-16.036420152259932,-88.84952402467752,0.41407117079883227,0.6435410388468072
0.239241,-91.59732818603516,14.71020221710205,3.140554250735002,-24.918673064058606,-17.098547011595475,-5.44968584912176,-90.21609416789377,0.41318779317181537,0.6640074724849422
0.242849,-91.96865844726562,14.837027549743652,-3.1413899465609267,-34.50808278138538,-19.68024923483357,1.0681476710889066,-91.12174504996673,0.41174420545076534,0.6808984980380471
0.246075,-92.39147186279297,14.950413703918457,-3.1409421719083346,-39.94382394554292,-23.877767602474297,3.443417245060303,-2.734623244158532,0.41017823747945276,0.6969298825092278
0.248995,-92.72866821289062,15.020098686218262,-3.141075834516765,-37.38356851629865,-29.069367069844308,2.745839993286557,-92.47827088998179,0.408814064894192,0.7141307921156175
0.27884799999999993,-92.95677947998047,15.025455474853516,3.141443411992795,-34.86776395817284,-29.336273787135482,-0.7948653990943495,-92.11545029343058,0.4079502075423141,0.7343895615539145
0.280963,-93.18787384033203,14.947111129760742,3.14043192415152,-33.36233562358867,-27.488485635499007,-6.19745282502064,-92.17714101479615,0.4077872943493813,0.758998215274641
0.283166,-93.46869659423828,14.734058380126953,3.1382392896308273,-37.18296586037538,-28.626521509722778,-17.95854466772824,-91.95442869001702,0.4090340344327954,0.7924537456117255
0.285245,-93.87493133544922,14.262591361999512,3.134377090164544,-49.104446339607335,-42.93848282109457,-38.81057261883274,-92.64332558635891,0.41277316764790567,0.8416477788433387
0.319118,-94.2271499633789,13.421187400817871,3.1288245330871955,-42.373305157843525,-56.31503265016019,-68.9365050664809,-93.34949738400364,0.42028758711767983,0.914797571869441
0.32199,-94.40254211425781,12.26079273223877,3.1248265019135073,-39.38832466034578,-43.996376670691994,-90.69438685625835,-93.4820040200545,0.43096406660632486,1.0082873188465773
0.324452,-94.74689483642578,11.285441398620605,3.1273738240830866,-40.05924731232696,-18.7661120842447,-77.19350026354181,-93.02222776185822,0.44045171996959787,1.0949782739705394
0.326485,-95.04987335205078,11.042245864868164,3.1345136695616187,-29.47224577803751,-22.636956164262052,-38.55248367576005,-93.13281352678597,0.4448971633744776,1.1505842164103275
0.359516,-94.97643280029297,11.31192684173584,3.138483689561693,-14.823001187714025,-52.20426622271509,-16.918255630716523,-92.88935365408169,0.4463701095186295,1.1877927231827334
0.362674,-94.75118255615234,11.386236190795898,3.1374697285557884,-12.19932659825255,-65.39687564233769,-22.382838976191728,-92.73501375327457,0.44879022113550826,1.2310449940725565
0.365399,-94.74610137939453,11.000900268554688,3.134665140735483,-12.813265835761962,-34.95549773806165,-37.60696351348226,-88.84349523346931,0.45359109089821503,1.2894080696617232
0.368039,-94.94962310791016,10.208163261413574,3.130512417112451,-10.722324657220327,24.038890057447606,-60.281309840808255,-91.06953256862114,0.46186822082617013,1.3699147795886593
0.399487,-95.30602264404297,9.000849723815918,3.125571706092226,-16.9601485959908,70.673456323361,-87.49199802238451,-86.62506432512231,0.47426179014626707,1.4768059084336855
0.402918,-95.81832885742188,7.577131748199463,3.122724670077998,-27.767825004626896,83.06356974192587,-103.59725623619441,-85.3059459999623,0.488914438020625,1.598669957385165
0.405887,-96.33539581298828,6.246371269226074,3.122057259182252,-31.790398321961497,80.74297882046818,-107.84150846568366,-94.54426064175193,0.5038875585816227,1.7234682486310455
0.4084249999999999,-96.70001220703125,5.06208610534668,3.1223379832727955,-27.187371623297118,75.12934879447225,-106.69373615679804,-95.90132345248088,0.5184095983339783,1.8463731044788305
0.43914,-96.93751525878906,3.9639456272125244,3.1226869479256774,-25.340375773604364,63.854011040912674,-105.01689056461406,-94.99303960707154,0.532462945776645,1.9672455263608135
0.441242,-97.13909149169922,2.9314229488372803,3.1230817224672065,-22.132444241219062,34.29328016217765,-103.03731732803676,-94.94492819405166,0.5458902529845778,2.085067419299897
0.443343,-97.29673767089844,2.038144826889038,3.124322618686997,-22.28158995948275,-3.432041778441058,-96.28470544661702,-65.20764113149762,0.5577578187213639,2.193932830138112
0.446627,-97.50650787353516,1.3734930753707886,3.126728047541003,-24.779320129517423,-33.07136614985154,-83.05038064663857,-97.10264501991968,0.5670677898611443,2.2874740613293922
0.479306,-97.74720764160156,0.8716392517089844,3.1282825403837426,-24.536778404542975,-48.353586568674906,-74.54772403569982,-96.60835721755055,0.5745496781283848,2.3701140718143803
0.482186,-97.97702026367188,0.3421296179294586,3.1288151553629673,-24.829482746329287,-52.99380193982272,-71.73255911644152,-95.36763907200208,0.5809898198841233,2.446678696828801
0.485054,-98.24143981933594,-0.2832252085208893,3.1285462824253165,-26.590817778546327,-44.53306219982033,-73.43984003156707,0.44289580765855896,0.5869185852934593,2.520434895537623
0.48717,-98.5362319946289,-1.0351253747940063,3.127833676621812,-27.36165585280104,-27.55830553674217,-77.68409909124549,-21.97927518202779,0.5925572497420166,2.592740851469179
0.518739,-98.80200958251953,-1.8663240671157837,3.1276058889171527,-25.438817582564464,-8.806113378025957,-79.18337342538747,-98.09806679942727,0.5976180066874119,2.661769995204112
0.522141,-99.03654479980469,-2.6982975006103516,3.1277651287876322,-25.814396024645127,11.889961717533286,-78.4675764305593,-98.25729984837218,0.6019639117156241,2.726625568613015
0.525034,-99.2782211303711,-3.48844575881958,3.1285189466432994,-25.156501958505743,22.525822156276774,-74.37039866446796,-40.75043844607908,0.6054537973354485,2.786375674718673
0.52757,-99.48847961425781,-4.191819190979004,3.129379317477277,-23.442354995717032,27.373509646105596,-69.6227751535271,-98.5223731773287,0.608189739951992,2.8416078932041673
0.558185,-99.66828155517578,-4.841217994689941,3.130162486607455,-21.70105120078835,29.700954662395386,-65.2756329543808,-93.82532424794223,0.6103160752265117,2.893181740139604
0.560336,-99.81383514404297,-5.4612836837768555,3.130582301310619,-18.07307157218372,25.653104522489862,-62.96977475096283,-93.49790833033114,0.6120084267096524,2.9421623880790446
0.562493,-99.93758392333984,-6.064819812774658,3.1308723998160866,-16.87568135407254,19.53836742275219,-61.38654373154304,-99.20003133228234,0.6133336642005586,2.9889427243561517
0.564566,-100.0811767578125,-6.6533989906311035,3.1311428236141734,-16.048017813470615,17.228464039798286,-59.92389970191983,-17.19652614016527,0.6143223044380902,3.033691424843733
0.598431,-100.21892547607422,-7.210237979888916,3.1315851154161107,-14.491229871422533,8.787813593692201,-57.466418129116754,-99.99876500808308,0.6149830791370471,3.0764422034947563
0.601368,-100.35944366455078,-7.7249064445495605,3.131727252713402,-13.811235020676282,0.9431145483077705,-56.729597812023286,-17.179591575473925,0.6153757507757979,3.1175499586358804
0.603525,-100.51062774658203,-8.239072799682617,3.1318693487417346,-13.078908114283038,-4.8032016139908835,-55.99667070275673,-97.96363150722242,0.6155175527467327,3.1571061254528785
0.605355,-100.66793060302734,-8.748411178588867,3.1319350248568743,-13.416917100834043,-7.368609567190271,-55.70546217239865,-100.0090926481879,0.6154274296239177,3.195213973609065
0.63819,-100.84774780273438,-9.259267807006836,3.1320587109971934,-14.689856895128381,-8.13011504171781,-55.090222637626,-99.93152833624208,0.6151250179091566,3.231982310600642
0.640372,-101.04620361328125,-9.773361206054688,3.1319984097818434,-15.627925321021687,-8.27216333966021,-55.547780425219734,-98.84971201934572,0.6146169194531867,3.267439278593545
0.642526,-101.25057983398438,-10.30101490020752,3.131987628646343,-16.499609430824346,-7.690913387518479,-55.72268107929625,-36.910712481138454,0.6139207857311519,3.3016828613979463
0.644694,-101.44973754882812,-10.82387924194336,3.132116017488463,-16.35907487355675,-5.750787481605779,-55.0859401090164,-101.02229717808007,0.613072722037708,3.3349281006665286
0.678542,-101.6114730834961,-11.359699249267578,3.1319897654919338,-14.758329541557758,-0.24827847022744776,-55.90885496059787,-74.46553655374062,0.6120491019928932,3.367017001434213
0.681241,-101.72994995117188,-11.908112525939941,3.132228484593499,-12.919718602844844,2.1045921653715527,-54.582497110578515,-100.94072741764512,0.6109358104239027,3.398478163454467
0.68383,-101.84173583984375,-12.434544563293457,3.1322320260872227,-12.487154184971473,4.721568900578183,-54.62180826434652,-97.96407846291572,0.6096982852028641,3.4290887922452264
0.68582,-101.96602630615234,-12.98671817779541,3.1321555929391254,-13.018692312786559,8.234072228432696,-55.135049169148786,-100.89922627501498,0.6083257276723627,3.4587732320103135
0.718599,-102.09355926513672,-13.556609153747559,3.1320106090949427,-12.769521035448971,9.491049016863068,-56.052172819952254,-100.14181061039642,0.6068052381273855,3.487441947182496
0.721397,-102.20234680175781,-14.136280059814453,3.1318938151552578,-11.521853794857327,11.152541197566505,-56.79588138282367,-100.94107854401231,0.6051512480874778,3.515176318830742
0.724126,-102.29292297363281,-14.72481918334961,3.1317972581083513,-11.241174854878468,13.047139196906016,-57.41218642710685,-101.2522552966633,0.6033761147320921,3.5420456013199444
0.726823,-102.40809631347656,-15.307859420776367,3.1319080121721323,-12.988541296469185,13.654391679217985,-56.82691093222304,-101.01266267350576,0.6015588371069559,3.5685385486345007
0.758839,-102.56912231445312,-15.873970985412598,3.131867918035034,-14.58335204785308,11.193716992977928,-57.15191182349976,-69.93700439379177,0.5996431472654554,3.594298970836416
0.761918,-102.76567077636719,-16.43920135498047,3.131784053585624,-16.232682222965664,7.287834896292054,-57.75527365930576,-102.29716674689956,0.5976124707253866,3.619216543960713
0.764562,-102.9949722290039,-16.9952392578125,3.131760980908584,-17.4929016437045,2.538205871056166,-58.02031231985894,-98.827440272241,0.5954944808956947,3.6434579203365276
0.767236,-103.25098419189453,-17.544851303100586,3.13161714284247,-18.751990668135697,-1.7710342210035737,-59.015539183821495,-92.93731837166351,0.593235370372391,3.6666795320179157
0.798952,-103.5228042602539,-18.09255027770996,3.131708582140502,-19.524978544431672,-3.8174537719358335,-58.62848602393521,-96.6256102197329,0.5909501531543131,3.6895951663978046
0.80252,-103.78507232666016,-18.61725425720215,3.132014039132319,-20.104499604939743,-2.506626918315435,-56.960461621064304,-97.71353095043993,0.5887441259550109,3.7128647819076583
0.805353,-104.01081085205078,-19.12104034423828,3.132529892150412,-19.687419225914795,3.174610667962808,-54.00992235245634,-102.99839339701002,0.5867201051925964,3.737139368810717
0.808026,-104.15068054199219,-19.614049911499023,3.133090767251825,-17.12448123987401,13.000662320925018,-50.7353315888663,-103.15706604865034,0.5848925987734294,3.76252151877276
0.838457,-104.18170166015625,-20.09780502319336,3.1337843640506247,-13.713936414628511,22.977615264211025,-46.60996904716488,-102.9856786230158,0.5833246702804958,3.7894198193321644
0.840644,-104.13337707519531,-20.54815673828125,3.1346039227029885,-10.73494001661734,32.283575546076854,-41.69826390179283,-103.15768627167542,0.5820724054230979,3.818202977155682
0.842758,-104.0247573852539,-20.956331253051758,3.1354720621731067,-7.7044832658520015,39.99996468542584,-36.480279413659055,-96.59268077429228,0.5811445893121419,3.8489460244542495
0.844778,-103.87699890136719,-21.317459106445312,3.1362944161291053,-5.549613651113162,43.925595420323155,-31.533887152587084,-103.07816620241692,0.5804933184158181,3.8813683601766042
0.878779,-103.74492645263672,-21.631704330444336,3.136917874143178,-5.123063641690812,43.0090386752208,-27.787775987192504,-99.65990839425062,0.5799768227783678,3.914596593268016
0.881823,-103.62310791015625,-21.9165096282959,3.137386293903171,-2.904974222881157,42.75543033624364,-24.974006134072173,-99.97921558941643,0.5794923775321315,3.947993752528588
0.884526,-103.4356460571289,-22.18750762939453,3.137862349873897,0.21714736178481556,45.20960951258302,-22.107471362066203,-100.57473939810197,0.5790595862416311,3.9816850245723665
0.886871,-103.1894302368164,-22.436246871948242,3.138372114814544,2.797408561850388,47.18750593771907,-19.04091791531099,-100.2007390901569,0.5787208885267507,4.015940310909204
0.918946,-102.9048843383789,-22.642866134643555,3.13902206219292,6.39895749280118,48.00010378855924,-15.156280268264798,-100.36959967945933,0.5785989354669137,4.051536163072962
0.922811,-102.57389831542969,-22.788619995117188,3.139801484151458,10.047292792679736,47.37264163026685,-10.52680622336048,-99.83513770458086,0.5788104661585092,4.089219692907167
0.925693,-102.21610260009766,-22.861797332763672,3.140718034696463,13.635949314685305,44.828874277679,-5.122251702953227,-101.08871186231963,0.5794832827958738,4.129814858683572
0.928376,-101.83502197265625,-22.837308883666992,-3.141255266020261,18.574752381815745,38.804387882539295,1.968561050644521,-100.32436865364623,0.5808783750536503,4.174990490341986
0.958604,-101.41151428222656,-22.688453674316406,-3.1397950266188475,24.856897418110428,32.18974240725922,10.445036052390734,-100.40309943435399,0.5832354030933733,4.2262977990037385
0.960759,-100.9153060913086,-22.418926239013672,-3.1381246962069094,31.931178766039217,28.265125955453648,20.051883242668552,-99.3985395448515,0.5867928000398484,4.285295344383068
0.9629909999999999,-100.32991027832031,-22.018503189086914,-3.1360554871970727,39.398771434681315,25.47734155703063,31.83061789088912,-99.22153499381251,0.5919865967513411,4.354798210564889
0.965001,-99.64926147460938,-21.453893661499023,-3.133613783967496,48.55488590389353,22.573138291752038,45.556180141258636,-97.78607206590011,0.5992797674975886,4.437818168708016
0.998838,-98.85322570800781,-20.723920822143555,-3.131092058023365,58.83398592549339,20.67347143827473,59.476221782960515,-97.68535486344253,0.6089132345895141,4.536000885897508
1.001838,-97.93315124511719,-19.8636417388916,-3.128809606362373,70.57132450470179,18.781999104254147,71.7315823993902,-97.02205317123898,0.6207832684088047,4.6488416548758
1.004656,-96.90168762207031,-18.90627098083496,-3.1269011226978765,83.39926670944283,11.4688233523677,81.57409672924285,-93.97336981897053,0.634440942266986,4.773660313701867
1.007418,-95.81087493896484,-17.870071411132812,-3.125350218449289,95.23977529606428,-1.63780796614789,89.1716439921282,-94.6879059381192,0.649148725202405,4.905935139410129
1.038796,-94.72160339355469,-16.756309509277344,-3.1236158759721957,101.04310699606815,-10.041377848858504,97.57314550145905,-93.8294342773143,0.6645095837836561,5.04323747767717
1.04173,-93.70098876953125,-15.523377418518066,-3.121265128405514,99.61213455362628,-13.54387665712624,109.14683274815395,-92.36122902194725,0.6806198203834088,5.186213448109018
1.044487,-92.84518432617188,-14.130955696105957,-3.11862485630904,90.38265702253896,-19.917149223553587,122.20183776166289,-84.38549040771031,0.6974802836730244,5.334915467874653
1.047175,-92.28723907470703,-12.598679542541504,-3.1160811951401017,67.50825786951788,-14.027378064508627,134.92542833626447,-91.62771371025396,0.7147683871272554,5.487363804191496
1.079172,-91.94332122802734,-11.023850440979004,-3.1148706835713242,53.952866367224644,-2.48510840733531,140.80389894732764,-86.51812878225525,0.7309853846484914,5.6341684270238375
1.082208,-91.553955078125,-9.555665016174316,-3.1153740776770835,46.434211204347534,9.240074569584594,137.5651325259343,-90.81098598950207,0.7443919063565839,5.764333253526373
1.085373,-91.10590362548828,-8.28572940826416,-3.1173019890539533,45.919252506969,17.296164874851453,126.82181869739453,-89.5089139974365,0.7541546305699283,5.872445781749735
1.088423,-90.62960052490234,-7.170100212097168,-3.1187754254848565,42.955247520412364,19.870399993779436,118.50344059026273,-89.67391914806838,0.7610057925901427,5.962877835233637
