Time [Sec],Roll Angle [Deg],Pitch Angle [Deg],Phase Angle,Angular Velocity X [deg/s],Angular Velocity Y [deg/s],Angular Velocity Z [deg/s],EKF Roll Angle [Deg],Step Frequency [Hz],Phase Variable
0.0,-97.70286560058594,16.205020904541016,-3.1257650627194056,-2.39405515550987,97.17612026538455,88.60964919703036,-96.73551049562965,0.4,0.025132741228718346
0.002732,-98.3211898803711,17.555349349975586,-3.1287540458743868,-1.5427252228772597,72.65581627711965,72.32884829136196,-96.8092196640576,0.399735421431672,0.04860308628432369
0.04076,-97.9772720336914,17.078975677490234,-3.1316657814709834,1.6727554828099065,41.710776808352286,55.72815547591602,-97.0705518310564,0.39938741654785287,0.07153262437847165
0.043095,-97.8183822631836,17.34445571899414,-3.1343257753961917,7.6401915489683185,9.91716915125453,40.72852047362358,-95.78362408284329,0.3990800147990372,0.09469541370217031
0.045061,-97.47367095947266,17.54704475402832,-3.13645801402087,13.333823580712608,-20.067430460766793,28.67634090952885,-49.22799981848186,0.39887911643786345,0.11850806892475031
0.047421,-97.02876281738281,17.713489532470703,-3.138077787164459,15.960444543027297,-44.67268492683373,19.54041306440861,-95.24113584693814,0.3988101030541687,0.14313675908375226
0.081056,-96.59564971923828,17.84806251525879,-3.139338976331881,13.323325579958297,-62.760962207657194,12.473049844335396,-72.29704987072564,0.39888134090562605,0.16864233750399132
0.085255,-96.27918243408203,17.943614959716797,-3.140458811873174,4.352324605179063,-75.9424076830814,6.2547167041352045,-95.82548044659424,0.399107916029831,0.19512840480023144
0.089564,-96.09441375732422,17.99043846130371,-3.1415134732575667,-3.893733751473359,-84.15187842389736,0.43595141796932946,-93.35778784748112,0.39950646383439714,0.22270924444986728
0.093346,-95.9070053100586,17.97989273071289,3.140590306764093,-4.950594534958819,-90.2101810856178,-5.507964438214894,-94.82820940648504,0.40010516669204704,0.2515727368852947
0.12051,-95.61280059814453,17.897043228149414,3.1393293400734987,-2.809888384681059,-96.13416124712077,-12.398927777688773,-92.56742188037948,0.4009642641911894,0.28210995471620204
0.122708,-95.26074981689453,17.717681884765625,3.137770317929108,-1.5722878824306616,-100.56855228272482,-20.862558395257366,-94.33853118236823,0.40218156782046566,0.3149518267287483
0.124926,-94.92081451416016,17.40883445739746,3.1358034363640748,-1.0012770241850142,-100.10260360773573,-31.4853689038179,-93.57499630392518,0.40390355804162564,0.3510412235629278
0.127279,-94.59912109375,16.9429988861084,3.133589524188142,2.5082386295161467,-91.82039135225914,-43.37893098481743,-79.87044500993154,0.4062609183676498,0.39123096434117777
0.16082,-94.3515853881836,16.326568603515625,3.131457298468077,0.07670176372909365,-76.07052154134334,-54.793075257784594,-93.60277902002241,0.4093076772728886,0.43590044146078166
0.164981,-94.35025024414062,15.57422161102295,3.129293067082364,-8.65943591937358,-51.49249562440265,-66.493332739989,-93.05097460207665,0.41316032308581047,0.48582488886586783
0.168087,-94.54708862304688,14.6581449508667,3.1268186936688283,-11.952662000340357,-24.19919288972051,-80.03856775098643,-89.56480945702415,0.41808629254101376,0.5427352964856397
0.172391,-94.69368743896484,13.537460327148438,3.1237783128998733,-6.4655770235313685,-2.6511481716242042,-96.66279739831225,-93.66878917360562,0.4245444727906135,0.609582376245311
0.20055,-94.63533020019531,12.214608192443848,3.120690249678774,5.463355192085071,7.573662091357809,-113.35362822023485,-92.3410624324968,0.43289008223210507,0.6886943028043729
0.202883,-94.39755249023438,10.739411354064941,3.1176863750915595,13.9997900766773,9.235052672997343,-129.32368966961354,-73.65354980304194,0.44355589634262393,0.7829088753557387
0.205214,-94.12102508544922,9.144594192504883,3.115148524208704,19.298665348925176,10.318117477233557,-142.63949862639024,-93.43958971199407,0.4569348915218444,0.8948410201987717
0.207702,-93.80015563964844,7.5086798667907715,3.11387502351412,27.835677811389097,16.778217969711044,-149.00248919679578,-92.94420354164673,0.4729474176485284,1.024160755056259
0.240981,-93.38996124267578,5.948152542114258,3.114058559842064,35.77036321170627,27.897328806384923,-147.36806590954674,-92.39999609153715,0.4909784518518506,1.1671692468922032
0.244088,-93.03172302246094,4.623884677886963,3.117001601579242,32.220519239659296,36.11081399088555,-131.10472979758606,0.04265617365801322,0.5086024757166682,1.3087533406411807
0.247551,-92.89403533935547,3.7430615425109863,3.1224284137221385,20.219441443387304,28.432825882597676,-102.01293238650743,-92.47385297533708,0.5227078251026471,1.42933630068198
0.251139,-92.87272644042969,3.3545947074890137,3.128910431809374,14.054747486286514,8.895276374998597,-67.48845032092484,-89.55424388358952,0.5314450636993708,1.517076691124564
0.280693,-92.93092346191406,3.3988168239593506,3.135741663821375,-1.5731226596132841,-7.319816403306993,-31.15424133285568,-52.65640841716953,0.5342627538737189,1.5681724387863025
0.283247,-93.50480651855469,3.8654136657714844,-3.1398979954953585,-43.685159101160366,-12.820728671203849,9.07902212405028,-58.93487524531074,0.530697981802496,1.5793430341380774
0.285854,-94.6358413696289,4.727942943572998,-3.1332487624196044,-71.84773659641544,-10.028605395110581,45.24358287351466,-94.39134599233726,0.5216737077604647,1.5793430341380774
0.289043,-95.56555938720703,5.790261745452881,-3.128574131874907,-63.19715857862172,6.64210497017764,71.28698489574656,-94.81731962604549,0.5091363481196177,1.5793430341380774
0.32114,-95.96205139160156,6.823947429656982,-3.1266872427552013,-42.5088331864495,28.522811917365303,81.95930573805323,-92.5722616064391,0.4957781130733491,1.5793430341380774
0.324206,-96.15675354003906,7.66334867477417,-3.127183633647128,-31.983402392433135,38.03237843084192,79.3902052138338,-92.90370849389753,0.483763824594389,1.5793430341380774
0.327685,-96.39384460449219,8.310588836669922,-3.128683047247892,-28.417797758876358,27.34266451181382,71.30320659502534,-95.11682361024995,0.4738775751058352,1.5793430341380774
0.331299,-96.62535095214844,8.861851692199707,-3.1303993607174245,-27.64629544872486,-2.272545236401697,61.971173773550284,-95.74680882440566,0.46616854798890117,1.5793430341380774
0.360075,-96.90521240234375,9.344878196716309,-3.132216656970918,-35.54740534662954,-21.22749198751656,52.0594935330675,-95.49845271034955,0.4605765880601861,1.5793430341380774
0.362774,-97.32530212402344,9.751823425292969,-3.132956727432076,-36.81937098519351,-3.6065708275380435,48.157963120656575,-94.34154553177582,0.45599699049843523,1.5795074545345957
0.365045,-97.58489990234375,10.109436988830566,-3.133261946928594,-15.028810155332142,35.248946570467496,46.57974887518216,-96.73796377445503,0.45198982115958947,1.5829808029295582
0.367531,-97.61221313476562,10.330586433410645,-3.1347182208537037,-4.167499259351694,75.09892713190902,38.44771198898664,-70.72900102505245,0.44957132542243744,1.5961843040814545
0.400046,-97.99787902832031,10.358213424682617,-3.135948185389832,-21.697274106177332,115.53047781060963,31.69326278668016,-97.44434613305978,0.4484417007584306,1.6173340624541745
0.403478,-98.9375228881836,10.38887882232666,-3.1348543438279375,-42.423008444433705,147.6290064565979,38.19805149934975,-91.05747894785517,0.446400996647221,1.6326883634196412
0.40701,-99.763916015625,10.69683837890625,-3.132502262552466,-30.586536499611732,130.3047917023725,51.96257314874502,-98.37173344256982,0.4423281201513639,1.6351459274953564
0.410684,-99.93854522705078,11.246142387390137,-3.1321432645404776,-12.41748454789005,90.31559139507861,54.10934941620422,-98.1365543087853,0.4381998704215592,1.6369996649035534
0.440577,-99.95227813720703,11.756360054016113,-3.1334585217584423,-20.15848712768682,25.43153489336194,46.58392895095421,-93.65772173748923,0.43555574825357996,1.6479190652217255
0.443748,-100.0501937866211,12.204092979431152,-3.1356321753292793,-22.799166326860686,-43.61876283223867,34.16857115321697,-99.27457239367801,0.43506048521492563,1.6721740105529088
0.446911,-99.9758071899414,12.437090873718262,-3.1397828604697113,-20.74800758513979,-78.22685324345137,10.366853438282536,-99.03242866888466,0.4383157296381257,1.7199629709684063
0.450453,-99.9070053100586,12.320243835449219,3.1397566410928253,-23.547300852314276,-94.34004813707683,-10.50980588251632,-98.96260454530031,0.4443733255436528,1.7855641580825248
0.481956,-99.99916076660156,11.905988693237305,3.1341116089489143,-34.1087967526956,-106.97947029053634,-42.86366834402084,-95.76313665472873,0.45441837597970053,1.876599870891762
0.490217,-100.27872467041016,10.958456039428711,3.127009389029412,-42.23521239320421,-96.84553227936676,-83.79478247371075,-96.18105863713245,0.46874924516782185,1.9951953262463589
0.49643099999999996,-100.44754791259766,9.644083023071289,3.1233602063263963,-23.273075587327433,-74.88094164454806,-104.94338406876638,-98.89599683528151,0.4833257856345339,2.1162348148362122
0.501329,-100.32257080078125,8.46438980102539,3.1234038393441215,-13.768161286449242,-55.994368929006434,-104.56192483381034,-95.34806415557568,0.49531851526642134,2.2219556122010644
0.520297,-100.33541107177734,7.544867038726807,3.1247073513456343,-14.912988930028943,-37.808102339255385,-97.0793774659805,-99.26729613534323,0.5048066364395373,2.3126930159236863
0.523319,-100.40947723388672,6.829376220703125,3.1272943073286696,-8.650285173433055,-29.58988212611264,-82.26455372225027,-92.12905374851923,0.5117181525292752,2.3878372886794996
0.526255,-100.32649230957031,6.3427605628967285,3.1297753763092,-1.1575757647787066,-29.662760244556676,-67.93223503205725,-99.5983383788342,0.5167055197891072,2.4513260411418747
0.530044,-100.19358825683594,5.898355007171631,3.130254493338614,1.516536249887021,-32.661841667595915,-65.09142275246555,-99.21543538777976,0.521281447066952,2.5125430054815263
0.560193,-100.1346664428711,5.297387599945068,3.129270889707669,-1.5569754520851393,-36.351755744046926,-70.69715707978094,-96.43586469474869,0.526259555440367,2.576574462162079
0.563579,-100.19625091552734,4.546987533569336,3.1280370257420005,-7.5684344353218105,-37.28722528296104,-77.82521762968712,-99.33979512017515,0.5315722510547423,2.643020976252897
0.566795,-100.32418060302734,3.7163431644439697,3.127021371279708,-10.197537317626152,-35.414838205028765,-83.76387586771645,-99.02863607153462,0.5368628852581157,2.70966268092051
0.569869,-100.42619323730469,2.8605477809906006,3.1266275485218764,-9.736303180711653,-30.381647899984273,-86.11559879141105,-99.29647514524888,0.5416590101384853,2.7735297122264853
0.601497,-100.50823974609375,2.0573174953460693,3.127309089439272,-9.5969545150387,-22.151003572741278,-82.26032583515403,-72.21964763944844,0.545506415149674,2.8317371102035906
0.606953,-100.5831069946289,1.374932885169983,3.1287860789709026,-7.649908346836307,-12.38827780522543,-73.80816481274918,-99.9121236255428,0.548283153598532,2.883459051353742
0.611805,-100.62398529052734,0.8253698348999023,3.130693314247725,-5.61583148134279,-2.982950864097196,-62.840772968108794,-99.62840715965167,0.5501001002661864,2.929324910508521
0.618001,-100.66548156738281,0.4061964452266693,3.132836421127699,-5.629417581375591,5.850108250534697,-50.50467610059497,-99.0058940531596,0.551147808280217,2.9704716627831984
0.641114,-100.73460388183594,0.11573080718517303,3.1351664633192566,-6.34521628375105,15.417806504037292,-37.09034508013542,-7.921253509250863,0.5516173124604284,3.008051282660667
0.644081,-100.82818603515625,-0.062183771282434464,3.137369029296,-8.130969669137707,26.80163668992065,-24.400147300386042,-100.5609377054337,0.5517210499819033,3.0433622226597734
0.647203,-100.95320892333984,-0.21344047784805298,3.1383211305273875,-10.31828310932093,35.33905725618747,-18.923187652134775,-99.95782320035472,0.5517276610021359,3.0780694168740443
0.650354,-101.09461212158203,-0.45798611640930176,3.1381085065087158,-11.836500119352303,42.90493976208064,-20.181288006683612,-92.13475726210712,0.5517573969043533,3.1129223243896846
0.680384,-101.23955535888672,-0.8128403425216675,3.1376760021785968,-13.298970832925324,53.23016063605101,-22.719041377707267,-99.1704520913683,0.5517872282576628,3.1477777000040623
0.683631,-101.37760925292969,-1.2087548971176147,3.1376535386273448,-13.267083241011473,63.52974781006632,-22.880503634591783,-99.42850031168584,0.5517798695938544,3.1824012782085194
0.68698,-101.49607849121094,-1.5652813911437988,3.1381876037113163,-13.377935503693488,70.02268272943135,-19.80145264920274,-100.56914512824495,0.5517469396054988,3.2168637246838143
0.690138,-101.61466979980469,-1.8150149583816528,3.1394088008021424,-13.547856949865066,70.23614663156177,-12.714611437163946,-98.5871963962676,0.5517613334796515,3.25162144670451
0.721122,-101.73445129394531,-1.9191964864730835,3.1408187692946283,-13.41375216192739,63.00344758357099,-4.510937392519215,-95.90476720044727,0.5519042078087049,3.2871873396254823
0.728273,-101.85350036621094,-1.9261620044708252,-3.1415144175929184,-13.134243745617542,51.62693082274143,0.45656773032920467,-99.83307880747715,0.5521684557173143,3.3235248222970526
0.734479,-101.90948486328125,-1.9163037538528442,-3.141334522590552,-6.447944463302157,37.35696151438687,1.507222646623474,-100.78593312207015,0.5524741263328824,3.3601391746981375
0.739227,-101.70612335205078,-1.883974313735962,-3.1408150463263174,13.438614050506235,26.346192845875027,4.531376306723654,-100.59992953308713,0.5528850634351609,3.397434141793065
0.760936,-101.23077392578125,-1.7422672510147095,-3.139611704656482,27.691492518010126,13.907961598381062,11.489709217075953,-71.341841866315,0.5535760891600453,3.436514777545891
0.765234,-100.82064056396484,-1.4778958559036255,-3.1386988464677086,27.281013516817993,-1.312272932733737,16.71640475772243,-100.27888752744093,0.5545214892732491,3.477237113144742
0.768373,-100.60186767578125,-1.1820805072784424,-3.1384013250934357,23.186147769760684,-15.692040306760598,18.39507913305668,-99.7175911572598,0.5555767296619318,3.518708996789626
0.771377,-100.46996307373047,-0.9318820834159851,-3.138996254158777,18.339952676265508,-29.194759097721988,14.946219507888348,-99.27724204025209,0.5564544014976034,3.5591314870202706
0.800403,-100.37110900878906,-0.8141278624534607,-3.140731288536232,15.892870066473774,-39.06326229736653,4.953574631871061,-95.06082108442453,0.5567078742112086,3.595687164246217
0.803624,-100.25714874267578,-0.8921458125114441,3.1401179160171893,15.129031228571032,-43.41167149660388,-8.471358122840815,-99.43744824625695,0.5560418982506183,3.626481701232052
0.807024,-100.04867553710938,-1.146995186805725,3.1378317221525127,23.009484926878304,-41.5383520978499,-21.559140360402992,-98.13738409301168,0.5544393864537194,3.6513499655078396
0.810128,-99.74430084228516,-1.449594259262085,3.1373016890917276,23.966368816387703,-36.84493979835145,-24.52270138466358,-78.77521560036203,0.5526783040701566,3.6751212126175825
0.840741,-99.5394515991211,-1.6258288621902466,3.1378039175876022,20.905383681353346,-38.5902819426269,-21.607986458252338,-96.00980161765558,0.5512407588061186,3.700814651333479
0.847105,-99.40577697753906,-1.6381930112838745,3.139500078222305,17.84157597064448,-38.0459363563444,-11.918346276176566,-20.259367741575154,0.5507052439369925,3.732085390540501
0.851393,-99.26396179199219,-1.492056131362915,3.1412909187230547,18.331124656763265,-35.161718224577264,-1.7160887642254061,-98.6504329625643,0.5511414497329762,3.769427983361649
0.857008,-99.10430908203125,-1.2412312030792236,-3.1400714064809745,16.40722770720534,-36.57680706210426,8.638041205572161,-98.07500344431003,0.5526079561095478,3.813271553271208
0.880851,-98.99488830566406,-0.9180185198783875,-3.1389812611579426,13.7862672641653,-38.54287018450326,14.811823583137299,-97.10658793685097,0.5547520124432158,3.8614644384292567
0.884256,-98.89179229736328,-0.6574543714523315,-3.1392344408821153,13.728911604383764,-33.70135547813683,13.361852115745402,-97.18911695157443,0.5568125867959517,3.909267505863833
0.886812,-98.76374053955078,-0.5255357623100281,-3.1396112170313777,13.472080269892006,-20.25379217227059,11.212459885834088,-95.48080138806232,0.5586946405105587,3.9560783647528637
0.889321,-98.60406494140625,-0.4342983663082123,-3.139512372348473,16.583636125541137,-3.172603232677059,11.752767122769825,-84.39828952057401,0.5606887884543134,4.003711785377965
0.920263,-98.32499694824219,-0.2836214005947113,-3.1385058819596794,25.027435288854598,9.23151378123363,17.389714560818533,-57.24456379321933,0.5634034535260979,4.055997644646079
0.9227990000000001,-97.96031188964844,0.06206253543496132,-3.1359027809896003,28.335036356703313,15.441915364260145,31.93596331355281,-96.75576470074766,0.5679760765353431,4.120127965365135
0.925321,-97.68868255615234,0.7865535020828247,-3.1308847319938873,24.461105031181113,14.024155068994027,59.93612574053415,-96.56081590123084,0.576255781826479,4.20783787738734
0.927821,-97.49900817871094,2.0660560131073,-3.1236283213862697,23.899528585169957,7.250398629451214,100.36461649448658,-96.26421970315585,0.5902176345061607,4.331770003620817
0.961132,-97.25198364257812,3.854794502258301,-3.116985809279843,26.598687864017474,-2.4008067975044276,137.14017181615446,-93.64198365693242,0.6098736047364933,4.492356574662076
0.964806,-96.9218521118164,5.7993011474609375,-3.113639661260678,31.545587266635316,-8.059645418729849,155.2693653452009,-95.49233118498692,0.6329514924258139,4.675678708237526
0.968435,-96.49503326416016,7.5675048828125,-3.1133274161641498,38.76331795506,-10.486693376138643,156.31329145794564,-93.83541814690376,0.6568853278241523,4.865828946330492
0.972124,-95.99742889404297,9.06163501739502,-3.115122743501032,42.605893589649966,-15.769644916110282,145.6250699352512,-95.10283384256307,0.6792247632619799,5.047465081247003
1.00038,-95.55888366699219,10.244524955749512,-3.1186414374710045,38.75686684138893,-17.187146517961587,125.68274804951152,-84.42511412360494,0.6976575792866982,5.2059588305914595
1.002707,-95.27810668945312,11.113364219665527,-3.122480493849099,31.21146124262746,-12.991581584423486,104.34662361079319,-92.25953014517636,0.7117027990202418,5.338042667373536
1.004979,-95.15341186523438,11.818840980529785,-3.12497622595071,21.087150383093018,-6.613509956330559,90.5992559814984,-92.8179402046103,0.7226982203506271,5.451846542821688
1.007477,-95.18707275390625,12.513866424560547,-3.126408738811027,9.589552297525698,-0.3777340604548878,82.81666523361908,-94.22864440569202,0.7316991318802071,5.553809406291887
1.040562,-95.29906463623047,13.216193199157715,-3.1272428308232896,4.998831465311565,7.17946967624157,78.35877151708101,-83.10618505555206,0.739263358317148,5.647310855047711
1.043914,-95.34081268310547,13.947746276855469,-3.1271443547108086,7.652937535733209,15.355873763738202,78.93114819971724,-93.11421076809803,0.7459676315287203,5.735884332697125
1.047449,-95.36441040039062,14.75704574584961,-3.126446089616411,5.563402095500125,25.62490437895417,82.7668253432455,-94.56226501544413,0.752031776362569,5.820857007038301
1.051172,-95.5011215209961,15.62295150756836,-3.1258920578600216,1.439744326326862,29.53824931108193,85.91775553191246,-94.03400320608856,0.7572861496879338,5.901122758392404
1.080449,-95.70655059814453,16.450267791748047,-3.126568358379224,-4.030193674014221,30.464405887062732,82.3931456937541,-92.71997925243144,0.7612912423522656,5.973869189865324
1.082727,-95.92713928222656,17.09856605529785,-3.1287355888353927,-5.861178279631995,27.360779881039985,70.6691533041839,-14.800377534914944,0.7638498840177596,6.037778949068615
1.085049,-96.05299377441406,17.510211944580078,-3.131818950434301,-4.5143251663475406,18.169797296114858,53.79061522349099,-95.84506581213329,0.7651570665708874,6.093986322961742
