Time [Sec],Roll Angle [Deg],Pitch Angle [Deg],Phase Angle,Angular Velocity X [deg/s],Angular Velocity Y [deg/s],Angular Velocity Z [deg/s],EKF Roll Angle [Deg],Step Frequency [Hz],Phase Variable
0.0,-102.58663177490234,2.243405818939209,3.1385139381780682,8.219105576413906,18.15966300293385,-18.09607223421374,-101.57092254940827,0.4,0.025132741228718346
0.007187,-102.39447784423828,1.8551267385482788,3.138986607666015,11.452835587067993,10.905055269406617,-15.28911037214862,-98.61771319196791,0.400056104410486,0.0506179968650704
0.041574,-102.28919219970703,2.0291748046875,3.1395710733040154,12.809543382664305,6.335248476431063,-11.847970568289693,-98.49244937862046,0.4001336067881795,0.07624122503866025
0.046303,-102.15565490722656,1.9955801963806152,3.14033149708496,11.744757018420692,2.442422926673904,-7.381663766241458,-101.10811564156703,0.40018847325275186,0.10172709719352133
0.04942200000000001,-102.0676040649414,2.042052745819092,3.1413778722441767,9.502042206332202,-3.1280558851365896,-1.2560505507458943,-99.86315319199102,0.40015857191312815,0.12668380488817552
0.052843,-102.00507354736328,2.192079544067383,-3.140637553097956,7.820686127975075,-11.261492106338318,5.582048511934261,-98.13262523536373,0.39998825725653464,0.1507563909361352
0.08021,-101.92473602294922,2.4340808391571045,-3.1395385499549655,8.622382996899907,-19.474059484169228,11.995688777016852,-99.69641998781968,0.3996491597303792,0.17375778175248027
0.082696,-101.79634857177734,2.728816032409668,-3.1387221141641426,10.639156005018021,-24.724914257683686,16.74247046714249,-93.04803922457114,0.39915853523197603,0.19578579439721724
0.084749,-101.63092041015625,3.035965919494629,-3.1381544858923127,13.047123828980384,-26.459917203103032,20.020607806459065,-35.03186361481805,0.39854687208779277,0.21702247195479063
0.086615,-101.45337677001953,3.3433265686035156,-3.1376889588088455,14.013428256902522,-24.69019469858522,22.691708668196167,-101.19834490641941,0.3978288955053153,0.23755273055011317
0.121164,-101.28819274902344,3.663393020629883,-3.1370718156213613,14.575338528409363,-20.40829788148545,26.236346328548297,-99.6485098020068,0.39696912996062167,0.25714699102217986
0.125394,-101.11831665039062,4.025935173034668,-3.136167378393726,15.973546553402674,-14.432792480431196,31.43246908869615,-99.10868806901482,0.39589653064387836,0.2753499568024516
0.129429,-100.9261245727539,4.454237937927246,-3.134987177560939,18.047396891093644,-7.5019331522416275,38.1976519332833,-99.60900787115905,0.39453798111808025,0.2916888510279308
0.132665,-100.72232818603516,4.960575103759766,-3.1336028920421017,19.349142154438866,-0.393782923931155,46.10960987913726,-98.83095601453287,0.39283865174452864,0.30580120213682704
0.159115,-100.53009796142578,5.545597076416016,-3.132199274286915,19.815430631339172,5.735493834280474,54.10698958584598,-98.42988746587284,0.39079873219545325,0.3176667900455827
0.161436,-100.33967590332031,6.204543590545654,-3.13081596852165,21.13990334914761,9.405040713513328,61.95799150845216,-99.42107942703802,0.38843686220388934,0.3273813317390689
0.164896,-100.1066665649414,6.937426567077637,-3.129521110676318,24.878793297042193,10.454395972874591,69.24198527710972,-86.1745823296851,0.38579882842390933,0.33521228450651913
0.166885,-99.76168060302734,7.7503180503845215,-3.1281262831590526,33.61852918916668,8.618848374004425,76.97739307820261,-91.35038815565332,0.38287980271954175,0.3411119603923594
0.200912,-99.27338409423828,8.665895462036133,-3.1264750871333793,42.910899102131474,7.277940513505644,85.99445172610253,-98.00487036761302,0.379635252871267,0.34478289996589995
0.205647,-98.67892456054688,9.684307098388672,-3.124761870975179,53.671312309258376,8.245069686770062,95.16831102677844,-96.24948082904668,0.3760904062465728,0.34636315816669777
0.209828,-98.09121704101562,10.798602104187012,-3.1229222523445865,52.47793482728458,8.938688203589551,104.94382120087326,-97.15822560676601,0.3722497524213197,0.34636315816669777
0.213726,-97.70579528808594,12.016912460327148,-3.121174053071798,44.33105252492803,6.310073679810865,114.32186217659752,-13.229860668458922,0.3681712507574494,0.34636315816669777
0.240196,-97.47547149658203,13.342320442199707,-3.119151204712898,36.572329873103314,9.219878553982513,125.3550355731343,-83.11009170504408,0.3637821241426893,0.34636315816669777
0.242336,-97.38037109375,14.757868766784668,-3.1175348763294393,26.03785078598397,14.73400382282876,134.25589221268478,-93.34701486176232,0.3592193249551643,0.34636315816669777
0.24458,-97.3885726928711,16.2004337310791,-3.1165151923982704,21.140506113341864,18.337408430799677,139.96042522634443,-94.15314075904284,0.35466770697669575,0.34636315816669777
0.246728,-97.36862182617188,17.62394142150879,-3.116295037485066,19.360219013725334,20.185840327765426,141.16073535032578,-96.29592848062805,0.35036984974998914,0.34636315816669777
0.279915,-97.35415649414062,19.017684936523438,-3.116013933838764,16.900227346402275,22.58538482093387,142.7087704049525,-87.52241052359948,0.3462892025166303,0.34636315816669777
0.283449,-97.42633056640625,20.38898277282715,-3.1163569884571984,11.985685111203722,27.64857331681306,140.89836046354893,-96.67133158059347,0.3425920166627736,0.34636315816669777
0.285724,-97.62451171875,21.666187286376953,-3.1172065148120263,6.897352981442425,36.033998268385005,136.43024195382333,-53.462812374441654,0.3393950453338752,0.3478016861400145
0.287561,-97.92430114746094,22.85643768310547,-3.118011585569558,3.05832520323946,45.18258586913186,132.32962860257945,-87.35153992445242,0.336631200214534,0.3517607547165636
0.319761,-98.28730010986328,24.006017684936523,-3.118578279180034,1.2829870025634265,53.79946373356074,129.6271276536805,-97.79208053022103,0.33417684669548386,0.35749075885830495
0.324982,-98.70404052734375,25.150972366333008,-3.1187500624122815,-1.1179387896429476,60.33944158083423,129.20474875540694,-97.81334222972511,0.331874415487472,0.36402110745289995
0.329333,-99.16532897949219,26.308643341064453,-3.1189713465084377,-3.3336870543928745,59.92787487201678,128.5506488593515,-96.9737029752548,0.3297211418384281,0.37134397461108737
0.333849,-99.57746124267578,27.46031379699707,-3.119458175720368,-3.7401723159112548,51.28215653381752,126.30597549051849,-98.45032821231665,0.3277929466063961,0.37994575699846705
0.359301,-99.88229370117188,28.591285705566406,-3.12011651310321,-3.004343870351322,40.12640514734111,122.92328332293467,-98.2459773378067,0.3261346969297805,0.39012250525386466
0.361402,-100.0848617553711,29.686532974243164,-3.1209953132453063,-0.8286027983345101,28.161300249880284,118.13092207293023,-82.47321723080287,0.32480572500595645,0.4022639757475457
0.363532,-100.20176696777344,30.760265350341797,-3.1215571729956904,-0.8977156682768709,15.397846983735223,115.04185973776525,-99.52534856797934,0.32366914867018415,0.4155308016045856
0.365872,-100.30364990234375,31.845029830932617,-3.1220587518794876,-4.121231557914028,3.4360564355691445,112.27514135028984,-99.42810024659181,0.32267975086359146,0.4296509642363652
0.399614,-100.41028594970703,32.925537109375,-3.122501739554234,-7.295011717562445,-7.010442984851265,109.8450078549235,-66.66761225596792,0.32179085884393216,0.44434045765427715
0.402654,-100.47216796875,33.993343353271484,-3.123084370267412,-9.167551620977399,-17.73015338716677,106.55752852436964,-95.76151861399926,0.32103747838187247,0.45982554456707664
0.405882,-100.44198608398438,35.03291320800781,-3.1237951434402844,-9.991516614143766,-29.0734685984409,102.43374034127191,-99.14720998388383,0.3204499751077464,0.47630553229939726
0.409114,-100.32306671142578,36.03761291503906,-3.124550654244451,-10.558342060532077,-38.46299112215996,97.96840171853853,-99.38679475234424,0.32001901969900043,0.4937322253599456
0.439845,-100.16384887695312,36.9871711730957,-3.1255281591220343,-11.240059826496463,-43.89751309755064,92.20151590794585,-98.41372795925861,0.31980599999246506,0.5125011710956106
0.4435,-100.01014709472656,37.858097076416016,-3.1265897061479264,-12.572333474110701,-46.05401555438794,85.97573017758752,-99.0915047693833,0.31980038566881375,0.5325598988627399
0.447261,-99.88946533203125,38.65149688720703,-3.127741326807659,-14.675248828041017,-45.93122241348945,79.27960396060378,-98.1487358678121,0.3199909118530871,0.5538506610290459
0.452311,-99.82467651367188,39.381591796875,-3.1286396003001005,-18.097808809810218,-44.33865452547426,74.08955494617537,-98.7442852504966,0.32020033731293296,0.575272141959162
0.479372,-99.80784606933594,40.073543548583984,-3.1294804464445023,-20.415677900883647,-42.89125547807852,69.26787169406407,-98.15010642933328,0.3203675266450403,0.5964414040617619
0.481318,-99.78643035888672,40.70514678955078,-3.1305467455543834,-21.098172600866125,-41.02400470240209,63.155794953008126,-98.78146780608587,0.32059158888303857,0.617978513986582
0.48307,-99.7450942993164,41.26024627685547,-3.1316005519291985,-20.76261223713257,-39.52611348156703,57.10649106551917,-98.80350796632824,0.3208401200745157,0.6396834451259993
0.485064,-99.72074127197266,41.745704650878906,-3.132698807338777,-21.133356612828152,-34.80662010472288,50.817020651339654,-53.52560752334961,0.3211191034406938,0.6615953285973765
0.520015,-99.79039764404297,42.17200469970703,-3.1335251006258145,-25.53975924076079,-31.890604027274755,46.12778842761325,-99.21861458344249,0.3212597286655092,0.6826554112696884
0.523064,-99.95218658447266,42.54496383666992,-3.134674150696033,-28.911794605692116,-27.084712172524533,39.62178052617681,-98.46050050813432,0.32146982374708327,0.7041608216687415
0.526295,-100.15620422363281,42.81446075439453,-3.135915140352608,-27.183183009788607,-19.59117332277285,32.5809175863096,-99.14111642778757,0.3217968074394442,0.726413865532964
0.52884,-100.36727142333984,42.95737838745117,-3.1377587768498434,-25.89901011563054,-12.428895232672202,22.047280320005463,-99.39720252007199,0.32259975820539505,0.7516780437119831
0.559552,-100.4576416015625,43.02109146118164,-3.138811144656501,-22.46610410481606,-20.341227131383217,16.009847301294,-99.506256299895,0.32332271153161335,0.776490034037613
0.561683,-100.16336059570312,43.14829635620117,-3.1394866035512887,-16.71782543706979,-38.54014493902442,12.086508094863218,-96.2555557700314,0.32378033131414485,0.7996803090372188
0.563706,-99.6060791015625,43.28643035888672,-3.140250398427971,-13.91404132051602,-50.39714160230229,7.660265474938986,-98.66079616100285,0.32412147608771213,0.8221675030707857
0.565772,-99.0766830444336,43.380470275878906,-3.1408631882813487,-15.51369382224781,-57.55310005987339,4.140938788103631,-98.13588647200012,0.3243070180219655,0.8436984503889086
0.599848,-98.48851013183594,43.48179626464844,-3.141047092191542,-14.480357917811165,-71.78131300673707,3.0785901610634765,-97.40779345525061,0.32412042801586666,0.8629028817106305
0.602734,-97.6612319946289,43.62664031982422,-3.1410153023171725,-12.32329026282005,-84.8619858711469,3.2306135234018583,-96.67065939376604,0.32352478182105815,0.8795254134017927
0.6054,-96.76605224609375,43.771949768066406,-3.1410474655989122,-11.366451623313903,-90.36144928516607,3.022678659404575,-95.39046162780582,0.32267127161797327,0.8944903121907073
0.607366,-95.9604263305664,43.89446258544922,-3.1409553578269738,-11.60313731484871,-89.4202970288625,3.5039337883236734,-94.9100062638939,0.3215475038007268,0.9077035046814927
0.639886,-95.30314636230469,44.00321578979492,-3.1408976729634435,-13.928464118722149,-83.63692314161342,3.794920124090315,-91.09702566627756,0.32024557414380983,0.9197266649045812
0.643161,-94.81928253173828,44.096065521240234,-3.1407924056106875,-16.378465780610416,-74.85697451075049,4.347543899646877,-84.96803977584179,0.31878040057743207,0.9306423307413452
0.645923,-94.4938735961914,44.1748161315918,-3.14080395614319,-19.17737997228597,-64.24010114412599,4.27008784691164,-93.44259576212548,0.3172738272632742,0.941205814720889
0.648488,-94.31197357177734,44.23463439941406,-3.140821741607686,-21.787330150383948,-54.12589896456316,4.165760976207927,-93.45792493578648,0.31575052533293557,0.9515695289119197
0.679601,-94.23477172851562,44.28782653808594,-3.1408024752908013,-24.585219813684,-45.425245414869494,4.266374785324092,-93.00448003019815,0.3142007046202752,0.961670908796431
0.681737,-94.2299575805664,44.34233474731445,-3.140735037741946,-26.537045406758107,-38.72546846177438,4.630250978922406,-91.96778915310664,0.31260709163991224,0.9713997556406394
0.683836,-94.2302474975586,44.40153121948242,-3.1406478643805253,-24.927960413782532,-33.65097258772423,5.1009141919861065,-84.94768396901601,0.31097359442059724,0.9807778727640413
0.685978,-94.21247863769531,44.460166931152344,-3.1406253258826187,-23.95663408927314,-29.17172428474612,5.221614733677633,-93.47731464056946,0.30936259566079927,0.9901947162204374
0.719934,-94.23822021484375,44.51835250854492,-3.140526985088214,-24.624773439167544,-25.41827237354107,5.75402840636695,-93.37590569699199,0.3077279117043872,0.9993615191600954
0.72234,-94.35601806640625,44.5806884765625,-3.1404746962144894,-28.06512264863004,-20.461295026802873,6.043905476723699,-93.29832587923863,0.30611479417750165,1.0085611177507152
0.724432,-94.65569305419922,44.619140625,-3.1407763747515656,-35.92887141177476,-13.806186657105995,4.4269845492228255,-93.38333862723607,0.3047878788300506,1.0194576225066034
0.726358,-95.13957214355469,44.5754280090332,3.141388145023003,-40.37992127876447,-5.18335585592863,-1.114795835407684,-93.70462205158445,0.3042666097557059,1.0353327795383078
0.759959,-95.72052001953125,44.3754997253418,3.1395323268571125,-38.88249109569839,9.159591889273395,-11.299634443984607,-92.95494229426609,0.3051502089094108,1.0600022316771267
0.762795,-96.47364807128906,43.95967102050781,3.1370179548699304,-37.76402029835212,30.93590750584705,-25.28697393957862,-95.6193370895338,0.3079456394873724,1.0967395931028396
0.765667,-97.49002075195312,43.304603576660156,3.1342119990270674,-38.035889148075306,54.473016008372376,-41.22736333965547,-95.59862032422836,0.31299758940825795,1.1478307257927258
0.768311,-98.6322021484375,42.40987777709961,3.1311983852317,-32.73722646546535,76.62548124159603,-58.74229746607514,-92.75782515933513,0.320758303541174,1.216258949355411
0.800169,-99.85374450683594,41.30012130737305,3.128658332850972,-36.00106651130179,97.41660439587153,-74.00393852492925,-92.22744014356128,0.33129366850402986,1.302608438295459
0.803029,-101.08260345458984,40.07969284057617,3.1267623644727736,-39.719322457713766,93.98044550746484,-85.8974971908342,-100.31974599013937,0.34451309561322446,1.4064843435803431
0.806291,-101.84951782226562,38.938255310058594,3.126413610917466,-36.089889706363216,71.89927037370319,-88.58482828958654,-92.64523126334151,0.35907866420302365,1.5196489063393657
0.808786,-102.14981079101562,38.15106201171875,3.1294492545830046,-31.46251850594962,43.32922428313266,-71.0758091069881,-99.28059077920047,0.3712241566137824,1.6185228636735274
0.839748,-102.21869659423828,38.07937240600586,3.1367354930069147,-36.19457601577201,1.361591380852872,-28.447155619476366,-101.36234426994326,0.37623508344959056,1.6733321472086877
0.841855,-101.7715072631836,38.841209411621094,-3.139057280321252,-27.12141077893501,-65.71516245766028,14.783990562269498,-97.95765706375998,0.3741050618289924,1.68358837414193
0.8446140000000001,-100.30863189697266,39.87220001220703,-3.1367713370311927,-6.528681995046763,-122.18891504375323,27.709580566479612,-93.36008505055432,0.37008376325879444,1.68358837414193
0.846874,-98.54168701171875,40.43208312988281,-3.138865780924817,-0.6049981997207483,-134.5717611410412,15.39602332322683,-88.53888597253145,0.3682912662007493,1.6955788316009919
0.880163,-97.81172180175781,40.352874755859375,3.1406988033519423,-6.631517323190474,-71.79114847914188,-5.009315805687534,-96.64928091069532,0.3698460191148959,1.7284880549930035
0.883101,-98.61910247802734,39.68519973754883,3.1359585241193586,-8.08713266127092,25.772252049918855,-31.835750778050382,-85.45451478017162,0.3754696407236591,1.7870604223905382
0.885841,-100.12577056884766,38.42327117919922,3.129744608993722,-13.858460656145041,87.66443297817065,-67.97285416705131,-91.99644487021679,0.38614970586933567,1.8777567040924428
0.888515,-101.40641021728516,36.855472564697266,3.126218504512705,-16.73359463631606,102.78798810257462,-89.33329407921488,-100.74796191164452,0.39894204433247343,1.9823958387513974
0.920276,-102.21770477294922,35.53316116333008,3.1266982502264438,-16.1133912615641,96.98323572322339,-87.23765543807157,-101.07059879079962,0.4102142094023022,2.0782872086119086
0.924207,-102.79801940917969,34.62549591064453,3.129154347646205,-13.560422790390597,89.87169057073031,-73.2640651132768,-78.90309148489231,0.41880724939006864,2.1580533901401777
0.927783,-103.26874542236328,33.926849365234375,3.130565681345986,-9.495206040746666,81.53156514128118,-65.24773163162129,-18.482216798710404,0.42606903089609904,2.2299949445618963
0.930564,-103.5660629272461,33.23342514038086,3.131129595623477,-6.04119602605732,66.74729966389759,-62.08898770654383,-33.568096394243014,0.4328414494267746,2.299318011915614
0.959859,-103.6840591430664,32.5900993347168,3.1318348255236472,-4.840269050616542,47.74297107197035,-57.96976892000084,-103.56302647998444,0.4390382401040968,2.3654498264047987
0.96198,-103.68154907226562,32.05665588378906,3.13265769417836,-4.1603514663852765,29.07331833427916,-53.0796744931627,-97.00440861815045,0.44454845111532804,2.4276570894651464
0.964094,-103.5926513671875,31.56968879699707,3.132809937184516,-2.3550584038870936,15.963801581004358,-52.1304660287331,-100.11853120322525,0.449745949905431,2.4882457404609775
0.966328,-103.4648208618164,31.0236759185791,3.1323996430770347,-0.8299351654703386,9.215571265937173,-54.49859848190866,-100.17049510956541,0.45484105996972785,2.548517632599524
1.000242,-103.37741088867188,30.385589599609375,3.1315941142908295,-1.9968365397044927,8.51795879600052,-59.224215123343726,-102.3494203553767,0.45988414441446707,2.608782773336613
1.00296,-103.36312866210938,29.671175003051758,3.130965928265682,-2.9860460070082695,9.71935577383356,-62.936716635379966,-102.16513534092655,0.4646185145820191,2.6674250714040237
1.005753,-103.38521575927734,28.9479923248291,3.1308598888735273,-3.7288973811388564,12.979318833542374,-63.57836509657847,-102.30607224446454,0.46872605041234816,2.7224263224245147
1.00779,-103.45834350585938,28.262056350708008,3.131139173261739,-6.5642305683557405,14.357354748595698,-61.96762890537104,-102.12408567621102,0.4720911128516389,2.7730205596312403
1.04041,-103.5511245727539,27.640405654907227,3.131740970884551,-7.69900374659036,12.623668322138872,-58.45234227542975,-102.48409769204407,0.47470928333227264,2.8191333693660443
1.043263,-103.58455657958984,27.090248107910156,3.132361021697265,-6.608084651695453,8.229502831877957,-54.79090325762853,-102.6118176606417,0.4767132392124694,2.8615514594508835
1.046119,-103.55585479736328,26.58125114440918,3.1328049950076875,-5.211794629198447,4.825002297161094,-52.14127480309465,-102.53220389204017,0.47827099489832625,2.9012919032920124
1.048837,-103.48981475830078,26.076297760009766,3.13299838298987,-2.109532313132176,2.7234508466306666,-50.96123668056989,-88.28132806963386,0.47952484254733013,2.9392207132976287
1.080457,-103.39767456054688,25.56053924560547,3.1329982228426783,-1.840528087435574,-0.0661676776980167,-50.916813130208126,-102.00790489474757,0.4805600791911843,2.9758547314189574
1.083944,-103.32645416259766,25.037914276123047,3.1330377147409645,-1.401495480418202,-0.2015553072299326,-50.647925658057645,-102.23411827771373,0.48139332950888497,3.011284677860248
1.086577,-103.2587661743164,24.51850700378418,3.133143735827609,-0.5955730722746596,-0.6673116697052143,-49.987449780412,-100.40077904210517,0.48203491158627765,3.0455626918917162
