Time [Sec],Roll Angle [Deg],Pitch Angle [Deg],Phase Angle,Angular Velocity [deg/s],EKF Roll Angle [Deg]
0.0,-110.41874694824219,11.49588680267334,3.1413086850444487,-0.03135545179247856,-2.154564424482738
0.001827,-110.57093048095703,11.026299476623535,3.140856980811972,-0.08134403824806213,-5.0323820939760235
0.038617,-110.63550567626953,11.145731925964355,3.1403906355779974,-0.1329859346151352,-8.794202627904896
0.040739,-110.77745819091797,11.072648048400879,3.140257003121499,-0.14796005189418793,-13.481559305732652
0.042433,-110.87802124023438,11.051164627075195,3.1405932343696876,-0.11081366240978241,-8.65830069658779
0.044216,-110.90461730957031,11.064743995666504,3.141151172931608,-0.048962246626615524,-19.65257110558054
0.079314,-110.86869812011719,11.11144733428955,-3.14156506555412,0.0030586495995521545,-0.9688309584371698
0.081628,-110.78551483154297,11.195290565490723,-3.1410728487456123,0.057586852461099625,-29.837124692049336
0.083422,-110.65100860595703,11.326972007751465,-3.1405634744714463,0.1138797476887703,-24.48876287509994
0.085023,-110.47129821777344,11.505699157714844,-3.1400938260712956,0.16557754576206207,-20.295999820852302
0.11816,-110.26167297363281,11.730398178100586,-3.1397865922147283,0.1991395652294159,-21.571141626252913
0.120201,-110.0414810180664,12.006861686706543,-3.1395540840730103,0.22432751953601837,-11.151631491437225
0.12215,-109.80158996582031,12.332512855529785,-3.1389759520354,0.2873186469078064,-12.69554782744142
0.124091,-109.5267562866211,12.689996719360352,-3.138288866461148,0.3618544042110443,-5.3580248719409305
0.158845,-109.23335266113281,13.07613468170166,-3.137395095541906,0.45851603150367737,-2.1733284546078484
0.161796,-108.89704132080078,13.51899528503418,-3.135921015803082,0.617631196975708,-28.792310426922633
0.163704,-108.51586151123047,14.054788589477539,-3.134762271702489,0.7412163019180298,-1.3665731696908665
0.165376,-108.16895294189453,14.715185165405273,-3.134411811892531,0.7767574787139893,-25.697758866696166
0.199047,-107.90338134765625,15.566180229187012,-3.134879689793736,0.7243623733520508,-7.585347662041065
0.202641,-107.64337158203125,16.673551559448242,-3.1344843806850142,0.7651713490486145,-1.698411012406219
0.206494,-107.29791259765625,18.00802230834961,-3.134158702955799,0.797662079334259,0.5342638258016327
0.209146,-106.96144104003906,19.50296974182129,-3.134238729755114,0.7866004705429077,-7.112033416641732
0.238596,-106.71102142333984,21.103986740112305,-3.1350677824443047,0.6962855458259583,-1.4093168498945086
0.241789,-106.60095977783203,22.742162704467773,-3.13641574532781,0.5518683195114136,-33.56613939531901
0.24586,-106.59895324707031,24.35607147216797,-3.137551627743582,0.43077147006988525,-13.16836707350145
0.249834,-106.58511352539062,25.881237030029297,-3.1373719389221297,0.44986802339553833,-3.726682254309579
0.27818100000000007,-106.4552230834961,27.23772430419922,-3.13576840070107,0.6200291514396667,-7.62615994658418
0.280374,-106.3125,28.40787124633789,-3.134877581570837,0.7139068245887756,-4.015471186198923
0.28231,-106.39227294921875,29.5200138092041,-3.1359520114681536,0.600127100944519,-1.0316323264830538
0.28418,-106.8016357421875,30.677576065063477,-3.1381545692908728,0.3671944737434387,-0.1691952500107493
0.318693,-107.48947143554688,31.853553771972656,-3.1400645853782505,0.16425137221813202,-17.696000235272827
0.321544,-108.26420593261719,33.02532958984375,-3.140814995989839,0.08419249951839447,-29.047817207459126
0.323551,-108.9896469116211,34.15678405761719,-3.1410992881402002,0.0537717305123806,-21.423854948596247
0.325311,-109.6036605834961,35.28160095214844,3.1415629228510027,-0.003258597804233432,-11.541996177937916
0.358543,-110.0260009765625,36.414756774902344,3.140971073417644,-0.06838998943567276,-4.090206958941973
0.361972,-110.17151641845703,37.553794860839844,3.140938728396623,-0.07204394042491913,-12.39484300202635
0.36527,-110.0325698852539,38.697628021240234,3.141393507840295,-0.02191251888871193,-16.601817505417817
0.368489,-109.72048950195312,39.828861236572266,-3.1413106068526324,0.030946306884288788,-12.11904537939766
0.398725,-109.38524627685547,40.90739059448242,-3.1415633048450573,0.003210319671779871,-15.165688138852136
0.402558,-109.11549377441406,41.91898727416992,3.1410049382821055,-0.06412885338068008,-13.349815067174946
0.406316,-108.86309051513672,42.89004135131836,3.1404966890638435,-0.11931013315916061,-12.573543145088951
0.409587,-108.61284637451172,43.81499481201172,3.1398392288389565,-0.19044464826583862,0.6028622348854641
0.438224,-108.46306610107422,44.648006439208984,3.139066827469273,-0.2739594280719757,-1.348665272043892
0.440229,-108.44881439208984,45.344970703125,3.138767755606819,-0.30635765194892883,-9.723220302235239
0.442122,-108.50043487548828,45.896209716796875,3.1387697217145734,-0.3062901496887207,-3.1205934921341107
0.44403,-108.59602355957031,46.30183410644531,3.1387243452495412,-0.31148773431777954,-0.2868838850683043
0.47858,-108.71412658691406,46.58174133300781,3.138960390167777,-0.28616487979888916,-13.395530081771055
0.481742,-108.79325866699219,46.751861572265625,3.1391632928800357,-0.26429858803749084,-12.356508825687362
0.483712,-108.83505249023438,46.81343460083008,3.139108721828841,-0.27033939957618713,-15.532377254561874
0.485466,-108.86541748046875,46.75430679321289,3.1388785979504776,-0.2954675257205963,-2.726100112532345
0.518776,-108.91680908203125,46.564876556396484,3.138457378641262,-0.34148526191711426,-0.5231305987575634
0.522149,-108.9996109008789,46.24836730957031,3.13819165180944,-0.37070930004119873,-8.702498830564412
0.525417,-109.06993103027344,45.827552795410156,3.1383477474291728,-0.35392293334007263,-1.0373921339820837
0.528828,-109.08154296875,45.326698303222656,3.13877645571985,-0.3071960210800171,-4.4404789289739295
0.558341,-109.0140609741211,44.733726501464844,3.139658769062325,-0.21082086861133575,-6.261785409345604
0.560974,-108.869384765625,44.04057693481445,3.140547129377539,-0.11382561922073364,-15.41485983225638
0.564521,-108.61177062988281,43.292476654052734,-3.1415221187295477,0.0076609160751104355,0.08962322296352576
0.568156,-108.17584228515625,42.584617614746094,-3.139893325157448,0.18382646143436432,-0.9109300816606806
0.598229,-107.72137451171875,41.96761703491211,-3.1387884071921004,0.3020780682563782,-15.674338443842982
0.600524,-107.43255615234375,41.46757507324219,-3.138729312533739,0.3076168894767761,-8.688395936780767
0.602458,-107.24480438232422,41.14180374145508,-3.1392583490514334,0.2503424882888794,-1.7169081386611653
0.604312,-107.05204010009766,40.98047637939453,-3.1402577767310462,0.14290137588977814,-3.929692895724418
0.638899,-106.85420227050781,40.90277862548828,3.1413516607421115,-0.02575109899044037,0.869510006819994
0.642076,-106.70637512207031,40.826019287109375,3.13910631571783,-0.2653086483478546,-15.511869717905498
0.644753,-106.73848724365234,40.70293045043945,3.1365599830183153,-0.5371841788291931,-3.7608093471109747
0.64657,-107.02133178710938,40.597496032714844,3.1343129535013494,-0.7790969610214233,-13.526399076590806
0.678978,-107.55082702636719,40.550907135009766,3.132903344485501,-0.9345659017562866,-14.264654048140168
0.682343,-108.26212310791016,40.55714416503906,3.1329731969225545,-0.9331837892532349,-8.996526262063432
0.685533,-108.95277404785156,40.57951354980469,3.13410030924152,-0.8163269758224487,-0.09776566249837526
0.688823,-109.41151428222656,40.57991027832031,3.1358067698195753,-0.6330493688583374,-8.858620922914282
0.718479,-109.52731323242188,40.52772521972656,3.136699824154978,-0.535902738571167,-1.4070154497744707
0.721958,-109.48258972167969,40.32237243652344,3.1359710122426296,-0.6154783368110657,-10.561341720151388
0.725512,-109.49895477294922,39.82292175292969,3.135537530278509,-0.6630377769470215,-4.560500202587285
0.729016,-109.35692596435547,39.0460205078125,3.138108093438277,-0.3810623288154602,-9.066776078904178
0.758333,-108.77593231201172,38.247894287109375,-3.1408152795356727,0.0845596045255661,-5.855497061394974
0.760298,-108.1087646484375,37.69425582885742,-3.139396897753462,0.23738083243370056,-2.168080006268328
0.762352,-107.83659362792969,37.47495651245117,3.1414321020666813,-0.017313329502940178,0.49206182091025175
0.764284,-107.91092681884766,37.51104736328125,3.1377559903970216,-0.414019912481308,-13.340254110060137
0.798822,-107.87696075439453,37.60773468017578,3.136585275238853,-0.540185272693634,-5.927942919081631
0.802229,-107.2494888305664,37.52853775024414,3.1385218148067096,-0.3293469250202179,-13.78662828751373
0.804313,-106.24270629882812,37.1773567199707,3.139926193175725,-0.1770494282245636,-10.21464164570445
0.8061,-105.67002868652344,36.58049392700195,3.1390112797088063,-0.27277445793151855,-1.1252050207714022
0.838614,-105.8019027709961,35.7668342590332,3.1383234058872373,-0.34589385986328125,-8.705518356294572
0.841932,-106.2588882446289,34.76979064941406,3.138332946627073,-0.3463740646839142,-4.059108672378223
0.845307,-106.86041259765625,33.65357208251953,3.1380825979959495,-0.37508752942085266,-6.329468538410693
0.849004,-107.47490692138672,32.499393463134766,3.138793140202404,-0.30087822675704956,-11.705433488945015
0.878313,-107.88502502441406,31.36910629272461,3.1405040172308936,-0.11744760721921921,-1.0130595204787056
0.880284,-108.14047241210938,30.337047576904297,3.141352766943651,-0.025941455736756325,-8.413846701026108
0.882288,-108.35272216796875,29.485797882080078,3.141329700143003,-0.02849172241985798,-2.2628786326287402
0.884238,-108.4261703491211,28.84253692626953,3.1413573762126417,-0.02551022544503212,-9.290319466456898
0.918406,-108.28305053710938,28.339624404907227,-3.141401348191578,0.020715132355690002,-5.252059302677311
0.920364,-108.02120971679688,27.88499641418457,-3.141355327566958,0.02563624456524849,0.9880097438090452
0.922054,-107.85559844970703,27.38410186767578,3.1412513870250347,-0.03680751100182533,-13.666502659751904
0.923691,-107.87669372558594,26.77859878540039,3.140626489440473,-0.10422662645578384,-6.3858247744362275
0.959648,-107.99481201171875,26.06702423095703,3.140179921539789,-0.15256783366203308,-1.1686489124326145
0.96381,-108.0941162109375,25.288711547851562,3.140082256169103,-0.163265198469162,-2.003966133508595
0.967344,-108.11527252197266,24.47602081298828,3.140271952808994,-0.14278800785541534,-9.22377600080756
0.969917,-108.11346435546875,23.649568557739258,3.14018479062058,-0.15220904350280762,-1.3049372727352921
0.998849,-108.1773452758789,22.836475372314453,3.1398933099227855,-0.18383066356182098,-1.6611355820168567
1.002876,-108.28076934814453,22.07411003112793,3.1400437594864328,-0.16771557927131653,-9.684148037584524
1.006266,-108.35803985595703,21.385879516601562,3.140420050007766,-0.12706108391284943,-13.488133386690784
1.010631,-108.42411804199219,20.75688362121582,3.1405332177480996,-0.11486843973398209,-13.83158614837727
1.038381,-108.5046157836914,20.13775062561035,3.1405342373952876,-0.11484308540821075,-7.0347369249442355
1.040333,-108.56511688232422,19.489578247070312,3.1406698768474395,-0.10018139332532883,-14.158506561003632
1.042261,-108.57317352294922,18.81502342224121,3.1409088528500284,-0.07424242794513702,-10.934141557431655
1.044171,-108.5438003540039,18.14543914794922,3.141039066163607,-0.06008848920464516,0.9739516740250768
1.078582,-108.515869140625,17.49764060974121,3.141022473074723,-0.06187364086508751,-12.174311307179934
1.080592,-108.50875091552734,16.86431121826172,3.140914056944047,-0.07363368570804596,-10.893082105246318
1.082397,-108.52371978759766,16.224855422973633,3.1408075783399974,-0.08519930392503738,0.7395798266892366
1.084057,-108.54766082763672,15.580122947692871,3.140726146818577,-0.09405730664730072,-6.204620384621478
1.118682,-108.57637786865234,14.927940368652344,3.1405524113047267,-0.11294578015804291,-4.2777755446430215
1.121247,-108.62500762939453,14.270846366882324,3.140342044488372,-0.13584749400615692,-14.107469982437312
1.123802,-108.70671081542969,13.63061809539795,3.140068861374107,-0.16564656794071198,-7.616290991270942
1.125831,-108.80826568603516,13.021409034729004,3.1401720134508975,-0.15457749366760254,-6.364489767458389
1.160544,-108.8830795288086,12.443910598754883,3.140609071787272,-0.10709545016288757,-8.958389184543002
1.165471,-108.9338150024414,11.900664329528809,3.1409558208282697,-0.06937263160943985,-2.2443574973101645
1.16852,-108.98477935791016,11.399491310119629,3.1412348446011173,-0.038995735347270966,-13.391321987182558
1.171159,-109.02375030517578,10.947587966918945,-3.141587345335701,0.0005787257687188685,-2.29691290263826
1.199559,-109.0447006225586,10.555368423461914,-3.14137591796924,0.023633871227502823,0.9955913342711377
1.205636,-109.07318878173828,10.236894607543945,-3.1414685870168526,0.013532336801290512,-12.04357533607611
1.208883,-109.13082122802734,9.988073348999023,3.1413027634035573,-0.03163595497608185,-1.657453624464714
1.211374,-109.21417999267578,9.788945198059082,3.1409262265693294,-0.07278329133987427,-13.695939979368413
1.239467,-109.28713989257812,9.609862327575684,3.140860658207967,-0.07999769598245621,-13.333540461807921
1.24319,-109.3297348022461,9.433865547180176,3.140969233873502,-0.06815832108259201,-10.110667249714659
1.246134,-109.35486602783203,9.262353897094727,3.1410733741723194,-0.05678573623299599,-3.904276130438634
1.248101,-109.38086700439453,9.107254981994629,3.1410235925497543,-0.06224439665675163,-2.070741758345881
1.279542,-109.42585754394531,8.968779563903809,3.1408279750347528,-0.08367562294006348,-2.783254403907031
1.282093,-109.4908676147461,8.840993881225586,3.14066600658318,-0.10145941376686096,-2.584221457446568
1.283802,-109.5494613647461,8.72226619720459,3.140808019762761,-0.08595623075962067,-1.6358831330422778
1.285456,-109.5616455078125,8.615899085998535,3.1412839888283224,-0.03381782025098801,-14.673459280684282
1.32015,-109.5112075805664,8.53561019897461,-3.141270047460788,0.03532898798584938,-2.1026312092144916
1.325087,-109.40853118896484,8.495356559753418,-3.140649859411804,0.10314975678920746,-6.85608024414522
1.327523,-109.28204345703125,8.485315322875977,-3.1403231660281525,0.13873226940631866,-12.841019501272058
1.329387,-109.1649169921875,8.484410285949707,-3.1402700974594517,0.14437681436538696,-10.733539153066951
1.360558,-109.05399322509766,8.482022285461426,-3.1401758232561567,0.15451110899448395,-10.844562303600275
1.365488,-108.92351531982422,8.48430061340332,-3.139930523360627,0.18104523420333862,-2.663177825133785
1.368408,-108.75518035888672,8.505290985107422,-3.139456539497891,0.2323138266801834,-9.85579865210289
1.370968,-108.55158996582031,8.559368133544922,-3.139090382107505,0.2716261148452759,-1.09551982063132
1.399391,-108.34033203125,8.66822338104248,-3.1387774725211743,0.3049984574317932,-13.167348984325661
1.404927,-108.1123046875,8.869537353515625,-3.1382541887151785,0.360930472612381,0.9263475793698537
1.408392,-107.83322143554688,9.183928489685059,-3.137231834887263,0.4702441096305847,-2.701528824852013
1.410976,-107.44940948486328,9.619405746459961,-3.135389728823907,0.6665091514587402,-3.8254237753891505
1.439393,-106.92695617675781,10.194417953491211,-3.133368410312395,0.8794131278991699,-9.417039659504514
1.44228,-106.36847686767578,10.931801795959473,-3.1327165644409627,0.9441608786582947,-13.621423805120477
1.445672,-105.94981384277344,11.880826950073242,-3.133774941960651,0.8283019661903381,-9.486155696710396
1.447979,-105.67860412597656,13.069231986999512,-3.1347751397529726,0.720476508140564,-9.596977289985244
1.480174,-105.46107482910156,14.471281051635742,-3.135736947704114,0.617556095123291,-1.605799705713235
1.483472,-105.30609893798828,16.015201568603516,-3.136560539064951,0.5299168229103088,-9.25896165765489
1.485303,-105.19409942626953,17.60809326171875,-3.137145806014068,0.46778520941734314,-1.9112211882399646
1.486995,-105.11506652832031,19.17873191833496,-3.1376343082952136,0.4160839021205902,-4.404227593559127
1.52023,-105.05741119384766,20.692014694213867,-3.1374741988143757,0.43267664313316345,-0.8901028166854128
1.524945,-104.95345306396484,22.103017807006836,-3.1364822912813293,0.5363548398017883,-3.8705707518931742
1.528127,-104.83103942871094,23.400720596313477,-3.136023554688436,0.5838204622268677,-3.062951583259969
1.530837,-104.86988067626953,24.626195907592773,-3.1371781703719326,0.46294933557510376,0.32189091263793523
1.561005,-105.1721420288086,25.834020614624023,-3.138923353406128,0.28073668479919434,0.9021291153367529
1.56659,-105.669677734375,27.047348022460938,-3.1402826746965244,0.13842512667179108,-14.101867721073482
1.569585,-106.25968170166016,28.26011085510254,-3.140778131786516,0.08655084669589996,-14.157891538989858
1.572255,-106.8533935546875,29.468902587890625,-3.141110075254729,0.05156513676047325,-13.019192691254208
1.599387,-107.41075897216797,30.668987274169922,3.141538644103358,-0.005801199935376644,-4.188078336713972
1.6026000000000002,-107.85388946533203,31.864120483398438,3.1409768693269733,-0.0664147362112999,-11.976175434574449
1.605009,-108.11965942382812,33.058982849121094,3.140466231747818,-0.1217883974313736,-2.9297217343449207
1.606869,-108.22661590576172,34.24832534790039,3.140101250891449,-0.16140958666801453,-3.265559388642181
1.640233,-108.2162857055664,35.40975570678711,3.1399409276434938,-0.17874380946159363,-12.730887358634812
1.644544,-108.12138366699219,36.504581451416016,3.139955660232755,-0.17699414491653442,-12.725758817999298
1.646828,-107.96891784667969,37.509334564208984,3.140128288758022,-0.1581059992313385,-9.662352138443234
1.648635,-107.77668762207031,38.44064712524414,3.1402240657109193,-0.14750196039676666,-5.981845365630588
1.680564,-107.59073638916016,39.32598114013672,3.139991514609942,-0.1722678691148758,-12.165308965892592
1.685431,-107.44352722167969,40.16155242919922,3.139699898681518,-0.2033645063638687,-11.557100623771465
1.688461,-107.29855346679688,40.91350173950195,3.1395890828691506,-0.21498052775859833,-7.9560758428292955
1.690934,-107.15412902832031,41.548065185546875,3.139386347069218,-0.23641523718833923,-6.597466108769106
1.720482,-107.05880737304688,42.04277420043945,3.139200473188557,-0.2561044692993164,-2.7353226253015523
1.725889,-107.03961944580078,42.39590072631836,3.1388797271516204,-0.29039132595062256,-11.757703323188016
1.729302,-107.0936508178711,42.61263656616211,3.138629954624118,-0.3172871768474579,-11.256641192212985
1.732019,-107.15443420410156,42.69911193847656,3.138663097819013,-0.31391578912734985,-10.84822390913213
1.759603,-107.17789459228516,42.6616096496582,3.1385425473171997,-0.3269049823284149,-10.314554854005626
1.763236,-107.2081527709961,42.502227783203125,3.1379952263589987,-0.38567519187927246,-9.536228022427485
1.766532,-107.27912139892578,42.22768783569336,3.137555550640966,-0.4330992102622986,-7.750533174724094
1.7685499999999998,-107.34335327148438,41.8603515625,3.1375762827529687,-0.4311330318450928,-0.19281580562584688
1.799744,-107.3471450805664,41.41521453857422,3.1380888157836724,-0.37612852454185486,-0.3229562502200818
1.802284,-107.23937225341797,40.91221237182617,3.1391066833257573,-0.26659443974494934,-5.119379977840633
1.804018,-107.03849792480469,40.363563537597656,3.139907596982441,-0.18036609888076782,-0.3684065925200498
1.805719,-106.84713745117188,39.75404357910156,3.140256766241893,-0.1427358239889145,-10.779579534055513
1.839618,-106.66236114501953,39.11167907714844,3.140933719323169,-0.07028349488973618,-5.344573465546802
1.843773,-106.47920989990234,38.50369644165039,-3.141392579651227,0.02130371518433094,0.3056233908367363
1.847425,-106.320068359375,37.99949264526367,-3.140683948271963,0.09661363810300827,0.8967123708218012
1.850187,-106.09400939941406,37.64094161987305,-3.1402110999213986,0.14657466113567352,-12.885480498425286
