Time [Sec],Roll Angle [Deg],Pitch Angle [Deg],Phase Angle,Angular Velocity X [deg/s],Angular Velocity Y [deg/s],Angular Velocity Z [deg/s],EKF Roll Angle [Deg],Step Frequency [Hz],Phase Variable
0.0,-109.19407653808594,24.042015075683594,3.136121927679069,-14.488501210849114,-35.64329095729276,-34.227170761201094,-108.11294706741182,0.4,0.025132741228718346
0.005383,-109.03959655761719,23.74051856994629,3.13725976203525,-15.184234524990368,-49.32738712921114,-27.06994701108626,-96.00133814462474,0.4000987250823073,0.05088579044404029
0.039716,-108.84429931640625,24.110660552978516,3.1366047088372198,-12.11396118645844,-41.68299842899785,-31.10667248038113,-26.642782940569962,0.4003175427736935,0.07739960685609347
0.049076,-108.78759765625,23.70682144165039,3.134662325380014,-9.896120215779844,-21.17748988015019,-43.197913896339166,-108.56191222506436,0.4007767288410214,0.10543745103720878
0.053245,-108.85376739501953,22.960538864135742,3.1322225729391557,-8.473357660720337,3.8950067279799203,-58.44160521805449,-107.99305468230042,0.4016159632210733,0.13589206070436463
0.057433,-108.96137237548828,21.981853485107422,3.13004286574686,-5.185367773526021,21.964139842333484,-72.10884106800668,-107.21669155085955,0.40292152826890304,0.16932944302285016
0.076012,-109.04715728759766,20.947917938232422,3.1291230524179703,-4.268437502453436,33.464286442234865,-77.91338171149364,-107.65213721243514,0.4046009380807187,0.20519779234083885
0.078029,-109.0994873046875,19.989200592041016,3.1286855179809976,-1.4614612329580348,31.61450729045533,-80.68621311827621,-107.88196120514687,0.4066053030610112,0.24321341562943663
0.081983,-109.03587341308594,19.154541015625,3.129040929343291,0.6991291454583667,22.258760052181984,-78.4184468798594,-107.92526664110436,0.40876757708544315,0.2823471486699863
0.085695,-108.91888427734375,18.473880767822266,3.12977579086276,1.5616803852062202,10.586304001220462,-73.74765616689204,-107.40190765280455,0.4109602068633974,0.3218074722188591
0.119191,-108.7887191772461,17.90775489807129,3.1306524281898023,1.4493640074425902,0.6074316146951241,-68.1946167490233,-107.08192444590742,0.41310151896603114,0.36108312429620903
0.126344,-108.66499328613281,17.405170440673828,3.1313358565872242,1.3139537995997947,-5.708702417261099,-63.86152424899969,-107.37204902550586,0.415223962827191,0.4003747663233713
0.130782,-108.54605102539062,16.903810501098633,3.131637119248671,1.8082481865312707,-7.852387597234043,-61.917809505564975,-10.485253517910662,0.4174614121803087,0.44052236624868585
0.134211,-108.42955780029297,16.35968017578125,3.1317280551518545,3.4689094320334943,-4.048208297950129,-61.28635851679729,-108.20445439950508,0.41992000529313955,0.48220003648481524
0.156097,-108.31598663330078,15.772806167602539,3.131931867448472,6.093592541614603,3.38515381044939,-59.95717638355613,-95.0207471224523,0.42258411271268465,0.5253234691545355
0.158189,-108.20369720458984,15.178160667419434,3.1323898492958087,9.033510866063192,13.002061655931223,-57.05545589204084,-69.99420297712663,0.42535790092672576,0.5693034373866657
0.161402,-108.10133361816406,14.607156753540039,3.133210014963368,11.568883916161095,23.657710860247533,-51.92118561746933,-105.64797468912045,0.42805805119803014,0.6129950070324577
0.16319,-108.02101135253906,14.096951484680176,3.134393383970041,12.807818759898877,32.49407856120206,-44.55811533369594,-107.24449494360557,0.4304546351639054,0.6549488687733416
0.19616499999999998,-107.94579315185547,13.679996490478516,3.135750317863687,14.787190505895648,37.04754028460695,-36.13431325672498,-97.99181617596946,0.43238520489551124,0.694125258536145
0.198159,-107.82764434814453,13.361095428466797,3.1370874879988677,18.142672907373445,38.68782045906927,-27.833411896131942,-106.38534747723568,0.4337876778634542,0.7301048197464534
0.200291,-107.6583251953125,13.124382019042969,3.138441495535042,22.107015446939105,40.883470145134496,-19.43756578343385,-70.42638483341648,0.4345800484966843,0.7623391149068778
0.202194,-107.4770278930664,12.961952209472656,3.1397143245512518,23.337045431546482,41.28804957043103,-11.566726430157017,-107.00788323124893,0.4347541477802854,0.7907384827226684
0.235534,-107.30475616455078,12.867025375366211,3.140613918817653,24.04568951076635,36.92312838887517,-6.017370618685023,-105.76805124707762,0.4345206644830298,0.8165878726355646
0.239851,-107.10313415527344,12.818062782287598,3.14117493856709,25.013346316144155,30.380626786703356,-2.5633324294653503,-106.02033628793976,0.4340886856599296,0.8411754081887058
0.243462,-106.86197662353516,12.794652938842773,-3.141548333264207,27.434375169346875,26.717114806489032,0.2713618415794463,-104.70933356749573,0.4335068389057595,0.8647941537293878
0.246966,-106.58927154541016,12.786844253540039,-3.1411519775978705,29.436499983016247,24.74837595748268,2.6912593112987504,-13.726883718258225,0.4328029635190745,0.887609612249429
0.27521,-106.30006408691406,12.774506568908691,-3.141257669637847,31.0611697601305,21.401892330236375,2.0402349213605193,-103.54699635618947,0.4323353067620977,0.9118650503980574
0.277323,-106.03897857666016,12.764739990234375,-3.1408208611531534,28.14792844703269,20.86661382007706,4.689092204848419,-103.60884342987151,0.4316650376316219,0.9348180537178221
0.279349,-105.83971405029297,12.825868606567383,-3.1401435776669255,27.02757934766467,18.20142277951931,8.78744732479796,-103.72062865125855,0.43058649684539624,0.9551636963173165
0.281503,-105.63944244384766,12.963882446289062,-3.139094152501246,25.79473703266654,20.0404836569438,15.122694520568553,-104.24161376919803,0.42879970770440057,0.9709915165440735
0.315824,-105.45055389404297,13.165218353271484,-3.1383774009886922,25.23945631352284,15.573784119018288,19.426210593938702,-104.4426829921661,0.42658502948532023,0.9840185631295288
0.319171,-105.23011779785156,13.356660842895508,-3.1387807500343485,24.7817619221457,9.790266797796631,16.95369065213055,-104.17100073993542,0.4248524941948548,0.9999358507435557
0.322079,-105.01627349853516,13.378244400024414,-3.1403163798761558,24.36123742023177,17.055784904749316,7.679329386686137,-103.63947292454515,0.42447813196517137,1.024277932974883
0.323997,-104.87785339355469,13.133790969848633,3.140560244702662,21.160718350643226,29.400822489886686,-6.203807462269691,-103.90164359323953,0.4260095646202714,1.0605709557521683
0.356284,-104.79623413085938,12.678305625915527,3.1382580362181494,19.794764186458007,37.14765036727183,-20.022390485832435,-98.09115643940812,0.4293358230326922,1.108237424108374
0.36036,-104.67845916748047,12.155811309814453,3.1370461954211804,20.72085075299982,41.21649309359139,-27.268179591367538,-103.86020054775723,0.4334121588233263,1.1608257626064649
0.363753,-104.47256469726562,11.771053314208984,3.1379486774260195,26.075239241500622,37.016189716316596,-21.81234401067183,-103.52036063580547,0.43630226083557333,1.2062168981887829
0.367407,-104.13336944580078,11.700334548950195,3.1402870318783815,32.12186057219305,24.084076881449118,-7.789869168213624,-42.364736118585476,0.43676359784845,1.2365292436774609
0.395352,-103.68148803710938,11.913174629211426,-3.1405361096995663,38.753352709060955,7.255266846782141,6.276413653807396,-103.06290023542915,0.43495614058807686,1.2526153209828519
0.397485,-103.10617065429688,12.284178733825684,-3.138481757632536,47.55606636042754,-5.697827048555147,18.377827782760523,-99.76801506368949,0.43137220194486436,1.2574258706760912
0.399561,-102.4242172241211,12.76517391204834,-3.136377112320524,55.202831966472,-14.695829895557557,30.60755299168786,-91.70232827121768,0.42616340124627716,1.2574258706760912
0.401704,-101.75271606445312,13.359450340270996,-3.1344097603511103,55.06554174906015,-20.63663964317544,41.87699629199372,-88.78189996506428,0.4196129767492413,1.2574258706760912
0.435874,-101.2171401977539,14.07871150970459,-3.131880478090989,50.147139603206895,-20.984023064362287,56.3257355565896,-100.62451524574702,0.4113334836961453,1.2574258706760912
0.438999,-100.75968170166016,14.962845802307129,-3.129280758118051,48.78473884493738,-21.622118119645094,71.08145084324254,-99.46441614679375,0.40139947945956167,1.2574258706760912
0.44199,-100.29371643066406,15.949980735778809,-3.127583355793272,45.09175801354903,-25.48622934068811,80.50838914323492,-98.61374682242386,0.39073357847156626,1.2574258706760912
0.4467979999999999,-99.85501861572266,16.875614166259766,-3.1279715901727845,41.28887943841519,-31.57445847625696,77.93461676962322,-90.98788174907841,0.38120397022588226,1.2574258706760912
0.476211,-99.4740219116211,17.704011917114258,-3.1274913676047236,35.02182228999706,-28.27252817296665,80.37478381288031,-98.71934495676616,0.3719719832781761,1.2574258706760912
0.479735,-99.3092269897461,18.573518753051758,-3.1267189790171974,25.002529004046146,-8.531803589448137,84.63744340218274,-93.55051347167446,0.36274085130570977,1.2574258706760912
0.484064,-99.39624786376953,19.38338851928711,-3.1268066374548145,18.16352205981491,18.779719528618656,84.21228461691695,-96.88201532624134,0.35422026935180106,1.2574258706760912
0.487995,-99.634521484375,20.068513870239258,-3.127347188687026,10.20553034650236,40.11968424119782,81.32769765493464,-98.76498369924323,0.3467328664088224,1.2574258706760912
0.515466,-99.99630737304688,20.66201400756836,-3.128235353607981,3.1761481008562957,55.27119191478007,76.53341712177344,-91.04200964149565,0.3404954553700526,1.2574258706760912
0.517455,-100.4286880493164,21.19547462463379,-3.1289293662888187,-4.1296019547418785,60.90563011208244,72.87022274535552,-99.7094533364924,0.33524928572794327,1.2574258706760912
0.5201,-100.90072631835938,21.753692626953125,-3.1290137144446692,-11.043130958573009,58.328941247695134,72.72501975379022,-96.7100926398541,0.3303923322880958,1.2574258706760912
0.522139,-101.3728256225586,22.386873245239258,-3.128824384642155,-16.49108535474017,49.5072874817601,74.16513781953073,-99.75284786638713,0.3256573258187334,1.2574258706760912
0.556071,-101.79073333740234,23.076581954956055,-3.1287860082316366,-19.502930693790873,35.538348515790105,74.69473702739518,-100.10263174707815,0.3211735863142312,1.2574258706760912
0.559039,-102.12129974365234,23.782909393310547,-3.129060302775382,-21.073437070786923,20.65193414427439,73.3321211181668,-98.5126523389331,0.31721001420159584,1.2574258706760912
0.562709,-102.39283752441406,24.474702835083008,-3.129553530813104,-23.128827114698645,6.742244934920136,70.63306258460955,-62.98699889514101,0.3139325406474736,1.2574258706760912
0.566775,-102.63995361328125,25.148880004882812,-3.1300644047921655,-25.397389070153753,-5.1585763565066465,67.79874581491852,-100.10823588407153,0.3113136174034016,1.2606956538967242
0.595675,-102.86751556396484,25.815471649169922,-3.1305993658001827,-28.46786987568172,-17.624379370132658,64.79566873121482,-102.11523716714801,0.3093172916864413,1.2677127809515145
0.600142,-103.10118865966797,26.465730667114258,-3.1311307901940997,-31.842000401140943,-23.532639851260846,61.80323308223801,-101.91579932468287,0.30787880375415905,1.2781094733346516
0.604087,-103.4098129272461,27.087308883666992,-3.1313059773773673,-34.88002756282759,-20.718304799986697,60.950149285092586,-102.41379173225663,0.3066093879034937,1.2894780940744517
0.606999,-103.8001708984375,27.702970504760742,-3.13125281385503,-36.21220473401981,-15.367964906116418,61.49644147528854,-102.34812711772105,0.3052657698337441,1.3003007287713257
0.635776,-104.19427490234375,28.32588005065918,-3.131243287404324,-36.102016707234576,-14.296515692337456,61.786806477284124,-103.19897839249165,0.30388350403231185,1.3107961105951924
0.638307,-104.52803802490234,28.949039459228516,-3.1314595872470994,-34.53287295297794,-16.010321999441313,60.6891677569064,-91.71590280690913,0.302669905912023,1.322264412393273
0.640663,-104.79016876220703,29.544095993041992,-3.132004070937491,-32.790833205166194,-19.718704907408036,57.57194455179345,-103.8961924290124,0.30190410381985744,1.3364700469970898
0.643192,-104.9915771484375,30.06923484802246,-3.1331242310994485,-31.165248182703156,-23.26346892625981,50.943642113267934,-102.95511392603757,0.3020553098303554,1.356389296673589
0.675598,-105.14837646484375,30.496572494506836,-3.1342875815965496,-28.95622157114846,-24.688637415454455,44.01061420001689,-63.20053067543519,0.3030175249948361,1.381413767704216
0.6776189999999999,-105.296630859375,30.830406188964844,-3.1356440617639305,-27.523189826671842,-22.159020507279582,35.8885903711446,-8.00090167770336,0.30481339010942715,1.4117366736145458
0.680231,-105.48184204101562,31.04970932006836,-3.1369613024679692,-26.13014542469106,-15.919840775958862,27.990531860251625,-104.12668527464976,0.3072156339877873,1.445982407196992
0.682915,-105.68426513671875,31.16909408569336,-3.138200847990783,-22.53152194913915,-8.385306277035118,20.538351513471664,-104.79819591730659,0.30998156870643884,1.4826642151579204
0.716429,-105.86979675292969,31.20011329650879,-3.1393810440556607,-19.190070463763853,-1.0670255990743205,13.41540762902747,-14.669965847175524,0.3129302793720182,1.5206682270669405
0.721124,-106.06790924072266,31.151554107666016,-3.140499139619529,-17.76153127621381,5.2334962746256934,6.645553361934851,-105.29594696207769,0.31592816209136293,1.559166469056993
0.723798,-106.30657958984375,31.02980613708496,-3.1415893297687454,-18.559322984480684,10.49876573549664,0.020245122594480795,-105.30158506249086,0.3189278949739954,1.5978646984923797
0.727109,-106.5718765258789,30.837203979492188,3.1405408653589295,-18.304282013325118,14.784692364206716,-6.422346194953419,-104.90360940733244,0.32191508524239293,1.6366725991340283
0.755669,-106.85659790039062,30.56684112548828,3.1394563241367095,-19.69745789644742,20.804322494846545,-13.07955185961231,-105.79879229167653,0.32496954725004434,1.6760908712793863
0.757942,-107.23777770996094,30.202857971191406,3.1383284556616347,-24.694905821565236,27.037952697466626,-20.056191384487537,-105.4320159394479,0.3281981218895201,1.716795042862896
0.760393,-107.66989135742188,29.741188049316406,3.1369857977381814,-25.788803305825088,30.991576962677243,-28.420034645829535,-105.86170940529934,0.3318823850592215,1.7605652472515487
0.762531,-108.04339599609375,29.165433883666992,3.135471896690286,-24.703295001413302,36.04458847669311,-37.89059394895621,-106.81520138746414,0.33624281024526664,1.808815391968721
0.796564,-108.39019775390625,28.4588565826416,3.133816385957407,-23.426150371911177,41.25346832266325,-48.2939351115586,-14.383178404954274,0.3414825165870367,1.8628641967190445
0.799948,-108.72683715820312,27.625530242919922,3.1321573233421423,-22.60846232259205,46.26578556960418,-58.77997278953693,-108.47794269176211,0.3477005760797137,1.923389396071385
0.802879,-109.06124114990234,26.647512435913086,3.1301741021866247,-21.416633586012555,53.50982614671177,-71.3547608628806,-101.92850398882584,0.35533674407211624,1.993215526113623
0.806234,-109.40923309326172,25.428638458251953,3.1272821221718443,-21.005944556503444,65.12864728344212,-89.7143708235774,-98.12417910288225,0.3653417500295391,2.0784052986380965
0.840756,-109.77025604248047,23.897626876831055,3.1236870704956656,-22.235901116577242,72.41927999597294,-112.62691658311302,-109.01695650118093,0.3783239310741308,2.182929846991469
0.847392,-109.91741943359375,22.201404571533203,3.1207149375779544,-11.116856874247773,59.741431198242935,-131.50287518468443,-107.74925954740583,0.39340519500858706,2.301459016608936
0.850358,-109.46755981445312,20.667308807373047,3.1194945502065337,14.22607680520076,23.014279719675653,-138.62251411134397,-108.35560132957742,0.4084239528748678,2.4205430327768998
0.852854,-108.44673919677734,19.499013900756836,3.119938452970942,36.61657583854666,-21.134142084582706,-134.5702858201805,-106.59124949179478,0.4214429824136676,2.5280060416868593
0.875833,-107.29820251464844,18.705793380737305,3.1229332335778244,47.59467741980562,-45.234208438878824,-114.72646892265074,-106.31589801240705,0.43080662681163,2.6133195981389457
0.877922,-106.4418716430664,18.260759353637695,3.1279212545319117,46.0915167080259,-36.42715761738928,-83.38254640635463,-104.88900756994238,0.4362435368788043,2.6745490902676563
0.8801680000000001,-105.9815673828125,18.184778213500977,3.133321192475291,30.226240605798974,-51.115626276568854,-50.227910005236886,-102.78513827600656,0.4385672954318154,2.716559685678058
0.882209,-106.04059600830078,18.597923278808594,3.1374229532669013,-31.94921729563722,-109.35738698969794,-25.333905876913068,-75.76416469894262,0.43902339393566336,2.746981432964729
0.917616,-106.84207916259766,19.512453079223633,-3.140304122524417,-87.02395930950938,-149.84237023827555,7.887876406387783,-102.82900896656709,0.43746055029584757,2.764746450152466
0.923608,-107.70572662353516,20.80340576171875,-3.1345230883776214,-90.55050892139202,-143.20826213895552,43.62760451211925,-106.28498385331764,0.43401759226873543,2.770600163884175
0.927694,-108.00508880615234,22.070072174072266,-3.130875090889139,-53.61351524850173,-102.23019387381636,66.32534423735254,-107.05806480375553,0.42956671350109715,2.770600163884175
0.930176,-107.82826232910156,23.199426651000977,-3.126669532801237,-13.789823231401938,-54.02546103281812,92.20344202129179,-106.68320585101637,0.42393422676460885,2.770600163884175
0.956694,-107.76944732666016,24.367591857910156,-3.1242781653354523,-7.750289929520693,-17.437561743501764,106.92305292799205,-104.57648484470386,0.4178466907071707,2.770600163884175
0.960417,-108.18692016601562,25.22722625732422,-3.126860652683466,-15.256077869775146,11.265508257570286,91.3251821468657,-99.1349527639682,0.41308528127098715,2.770600163884175
0.962853,-108.7236328125,25.324907302856445,-3.134090942443573,-17.200904226497283,32.473669955962066,46.732075754051785,-97.34188344525519,0.41123019831814384,2.784899247630211
0.964939,-109.10480499267578,24.54287338256836,3.139875842314856,-13.461682160654307,56.80781372330369,-10.73221818623309,-108.26213923497174,0.4127907526915027,2.820542855339365
0.998024,-109.48576354980469,22.993791580200195,3.1333394983365923,2.589806029244908,130.31908045811616,-51.77381404084255,-99.03300601966191,0.416209852883368,2.8679621033511764
1.00385,-109.91410064697266,21.198543548583984,3.1340031015277825,33.49769631255998,209.45919829548995,-47.7969876230214,-109.13702387901316,0.4187840858283043,2.910287722291459
1.007035,-110.45159149169922,20.117708206176758,3.139869459117408,17.558917129579964,216.0830747714333,-10.905091981673406,-98.56398971651974,0.41946626517300034,2.940886961676485
1.008927,-110.87708282470703,20.787410736083984,-3.132314496735242,5.917690837937857,53.219116220163095,58.94386317867138,-110.02165557534563,0.41779223487731726,2.9567245618608005
1.036639,-110.36148071289062,23.622543334960938,-3.121690667254377,-16.022314104076564,-122.62561001852717,125.86179462841423,-109.05662427052522,0.41439236878146835,2.9616132334773333
1.040408,-109.30486297607422,26.596839904785156,-3.1229161519378206,-2.7214263358719926,-190.18634423143826,116.97906531092094,-108.2776771953844,0.4115638962058624,2.9698784565778764
1.046437,-107.86195373535156,28.054424285888672,-3.129268724666403,14.844956830801031,-191.8285129532061,76.16616468029102,-105.28039480218777,0.41015854264333795,2.9869076819784928
1.049141,-106.96507263183594,28.212339401245117,-3.1380833869446643,7.639266912109428,-116.96175761156412,21.507145545346273,-105.69634761583879,0.4103100054494372,3.013630372143868
1.076009,-107.04568481445312,27.237062454223633,3.136098989267478,5.42614133327908,-32.89782811851444,-33.694443326696785,-105.85106094438446,0.41152937738733036,3.0470724499643125
1.078167,-107.3575439453125,25.681976318359375,3.1295235525952374,0.2566569512245113,19.636887778887747,-74.24226431563851,-29.606317929987632,0.4129546736047459,3.081885003590685
