Time [Sec],Roll Angle [Deg],Pitch Angle [Deg],Phase Angle,Angular Velocity X [deg/s],Angular Velocity Y [deg/s],Angular Velocity Z [deg/s],EKF Roll Angle [Deg],Step Frequency [Hz],Phase Variable
0.0,-98.23908996582031,18.983530044555664,-3.126770238584986,21.376962139765826,51.00277447600732,83.43681908949955,-97.266425708733,0.4,0.025132741228718346
0.002345,-98.18309020996094,20.65962028503418,-3.1242812673332923,21.02788653921211,27.63723008014896,97.39452922447406,-97.20708484558857,0.3996337269611875,0.04796412108155424
0.040971,-98.14471435546875,21.297046661376953,-3.1232154583736023,6.269825082579272,6.843185312455993,103.35171093553245,-97.21790335605574,0.3989377270243201,0.06870075211939061
0.043968,-98.34214782714844,22.50874137878418,-3.121710291930615,-10.0037853414404,-10.587692237169266,112.04372088083147,-97.16789047551106,0.39791420674638883,0.08733578119668038
0.046991,-98.66228485107422,23.77375030517578,-3.121466179616294,-23.156564512918067,-19.76969056201489,113.78896398736396,-97.45293537260073,0.3966770285118606,0.10456404806459957
0.049481,-99.04669189453125,24.926881790161133,-3.1218397473761232,-25.64267311607996,-9.887655050077258,112.11148318758717,-66.8344378386611,0.39532245984636716,0.12097699490041902
0.080756,-99.33441925048828,25.915678024291992,-3.1234517923649427,-15.103445339940164,-1.0529098392157255,103.25900477792787,-59.619692483855026,0.3940274370445338,0.1376789693725253
0.083395,-99.42045593261719,26.801284790039062,-3.124108264710746,-9.636111989550383,-2.684661348560518,99.60774274198997,-99.11038959347914,0.39272482989686985,0.15425192131193452
0.085864,-99.50617218017578,27.804096221923828,-3.123407935315055,-11.12433507761529,-8.530832848812349,103.68766745023787,-45.524238588600646,0.3912512665403355,0.16966887849068576
0.088337,-99.65721130371094,28.963153839111328,-3.1223611096648956,-15.413100503699154,-16.433590529854296,109.82445581571092,-99.36689759966575,0.3895584665694462,0.18361574467901673
0.120609,-99.82608032226562,30.1883544921875,-3.121810899130707,-18.055553844509934,-22.21002323735936,113.15874243264687,-98.9897957069599,0.38773443775315297,0.1966317139549762
0.122694,-100.07711029052734,31.362668991088867,-3.121847037980998,-20.08348482041091,-10.313057160832225,113.2359987023489,-85.88036447150837,0.3858887000863263,0.2093966753896445
0.124846,-100.53512573242188,32.407894134521484,-3.1225396981804647,-20.58169418639727,7.452718224177101,109.76284750939742,-99.66214443965077,0.38414412126837416,0.2226812654993611
0.126855,-101.08787536621094,33.327449798583984,-3.1236585564446915,-21.372228818671008,17.483417926041938,103.88378950206561,-100.20678801397781,0.38258622101716244,0.2370291765168249
0.161419,-101.64552307128906,34.166893005371094,-3.1247391489219782,-22.48082316247744,22.343184605417928,98.16173705318491,-95.99647826720194,0.38120745988347365,0.2524047660457655
0.16556,-102.18537139892578,34.977718353271484,-3.1253917461091394,-21.56926270075295,23.795899247535232,94.86121889150549,-99.99199645822911,0.37990909488904073,0.2681988692986593
0.167682,-102.67720794677734,35.82072448730469,-3.125475022132686,-21.144416396641695,21.020562868874563,94.82776462495077,-101.25345708030612,0.37855017721845075,0.28353093018784864
0.169725,-103.09515380859375,36.720882415771484,-3.125489967004999,-19.55829279210841,13.43382096525618,95.12545841992578,-100.58070858432731,0.37711446397044573,0.2982950869179522
0.201525,-103.43730163574219,37.652099609375,-3.125462690337661,-19.966615161070113,7.0008469959542206,95.60285449196381,-89.29554304519813,0.3755931329771108,0.3124310829647134
0.205411,-103.82355499267578,38.57788848876953,-3.1257501935898357,-24.14942983897509,2.5138707608170567,94.24915880979148,-101.30438076230523,0.37407672477762866,0.3265024217920337
0.209578,-104.27763366699219,39.42169952392578,-3.126878950738514,-27.478359880054462,0.9062797650007148,87.91583858114048,-91.73927530125607,0.3728152502080425,0.34208027711983613
0.213466,-104.71759796142578,40.099029541015625,-3.1288417232929007,-27.487732607143013,0.5295469142286158,76.50815225203355,-102.6520991599404,0.37205884283668966,0.3607523024619059
0.240707,-105.1230697631836,40.59865951538086,-3.13090010957377,-27.20413290752033,3.3186072773659556,64.40480432577168,-81.58549560502676,0.371814052911601,0.38259138854842084
0.242831,-105.56427764892578,40.95531463623047,-3.132898873382151,-26.916276292497432,8.057515253482451,52.58467702363354,-105.04955580227818,0.37203469442173004,0.4073394859855878
0.244925,-106.03621673583984,41.187843322753906,-3.1347616602629857,-26.534922925473527,12.837821219601805,41.50185156692535,-104.76511679430456,0.37264751100175286,0.4345655553747
0.247044,-106.54971313476562,41.310665130615234,-3.1364475310881628,-27.55209689478663,19.02749317849733,31.410472464474125,-105.52631714974142,0.37356148794794847,0.4637223755529695
0.280283,-107.17820739746094,41.32724380493164,-3.138028546333432,-33.440121232951356,25.02694010013977,21.886772582057457,-106.1685589213064,0.3747160268294275,0.49444811781367354
0.283835,-107.8470687866211,41.25664138793945,-3.1395781014910047,-35.46521426525219,24.585064426880383,12.448300653877855,-106.55096508265942,0.37609204054364836,0.5266379693067371
0.285946,-108.36714935302734,41.118350982666016,-3.141177371754648,-35.019397572841704,21.707449380493358,2.5784768798459727,-107.1660497887789,0.3777220056133759,0.5605099017169753
0.287763,-108.83123779296875,40.886474609375,3.140498192547225,-35.221680455300806,23.679779201455844,-6.824591829987925,-107.79739974300836,0.3795775372694343,0.5959015245140117
0.320341,-109.40225219726562,40.51940155029297,3.1389306587362307,-36.93721223894374,32.706162765120126,-16.686188000834292,-103.98364485120325,0.3817314001056926,0.6332842038915378
0.324415,-110.16253662109375,39.94826889038086,3.1367691636264836,-43.08155820873341,45.75178309870946,-30.445373564940493,-109.22625172381882,0.384604421442464,0.6753208205862846
0.328472,-111.01144409179688,39.140892028808594,3.133870788869821,-51.20072360343804,47.27018537762207,-49.115798114007895,-106.22109566035651,0.38876779633686603,0.7256454850499078
0.33256,-111.48084259033203,38.2183837890625,3.1304154484912305,-50.6902557554388,18.949582918182287,-71.39604935641333,-100.79414117896722,0.3947747144012496,0.787815065431958
0.35992,-111.03750610351562,37.41040802001953,3.127877412434834,-33.65324021052868,-34.09298144967244,-87.26156793035578,-110.26014047815069,0.4022766647432084,0.8597556364474637
0.362933,-109.74883270263672,36.94837188720703,3.1283734322931736,-15.00090883257264,-85.83313631828517,-83.12922152022803,-108.69678646821107,0.4094299961176991,0.9299771313304077
0.366035,-108.18326568603516,36.82469940185547,3.129894489700927,0.9154907019833002,-114.52822951218029,-72.51372785181587,-107.15511249577806,0.41580036259032155,0.9957285697117919
0.370349,-106.77249145507812,36.698158264160156,3.130890988356893,13.377232847982624,-108.2472900042741,-65.4711471193724,-105.61143630240358,0.4220697025875213,1.0612455019573854
0.39989,-105.67464447021484,36.36327362060547,3.130792251432965,23.63975600046686,-91.57640333472794,-65.39585794415136,-104.33418333793097,0.42935694260228285,1.1335520028870623
0.402056,-104.84146118164062,35.91449737548828,3.1307731096975564,9.375677730271443,-88.64250240693814,-64.9952468587626,-98.42471499070517,0.43778317624278107,1.213472882624845
0.404107,-104.3572006225586,35.47883605957031,3.129924856514405,-16.346353646227602,-97.06968542754825,-69.76757516393138,-2.988642741884754,0.448086092176821,1.3057147408497016
0.406023,-104.17257690429688,34.975677490234375,3.129592387359862,-35.55223770546733,-86.92370579287193,-71.6288153731382,-103.9835507691041,0.4595518199102454,1.4059101123876445
0.440639,-104.43106842041016,34.48244094848633,3.1316809909716743,-44.64626234002954,-50.09947854317855,-59.30797373313559,-16.794846753537055,0.4692869910930917,1.4959524893540594
0.444972,-105.0831069946289,34.26139831542969,3.137236052476352,-36.24581951002003,-2.481286276164453,-26.230470658314793,-104.85331300570788,0.4733599990208767,1.5510301241948108
0.44881,-105.7820053100586,34.50688552856445,-3.1392212379851667,-17.72439553769645,32.05129447278306,14.372850740275165,-100.07925485312869,0.4706387062107107,1.5636738231019875
0.45508,-106.27485656738281,35.192115783691406,-3.133274015184946,-4.892189160479218,34.627201280510405,50.65419577171572,-105.43971143019759,0.462309405612899,1.5636738231019875
0.480113,-106.66692352294922,36.21650314331055,-3.1286988369629025,-10.91362801058863,24.33035642744685,78.80575958693414,-99.68607019951702,0.45008280916650817,1.5636738231019875
0.482461,-107.21753692626953,37.344757080078125,-3.1270900662441057,-27.26155089277804,5.898435254007121,89.09727006225592,-93.44304060118334,0.43707417125367665,1.5636738231019875
0.485357,-107.51134490966797,38.2681770324707,-3.130783192603506,-44.64954424592573,-47.71001199413046,66.58829286001969,-106.86263034783326,0.4285584621127446,1.5636738231019875
0.48799,-106.98108673095703,38.23381423950195,3.136156813731774,-72.19614454597779,-118.95460190569875,-33.31966060165443,-106.03748199728096,0.436539293935611,1.6407459906746353
0.520013,-106.13833618164062,36.32170486450195,3.1235104311707826,38.05929279126636,31.491369225003755,-109.9750205057747,-102.75509082372965,0.4558357162384693,1.7894175605457152
0.522161,-106.53105163574219,34.80134582519531,3.1413966483448155,22.75853353148828,119.21081596184428,-1.1963728400899658,-104.64526194174758,0.45586312619205965,1.8182307851109567
0.524234,-107.48890686035156,36.72509002685547,-3.123425071279056,6.09205702971182,-31.000603057665415,111.90028690826121,-105.46979677985905,0.43836801244802875,1.8182307851109567
0.526359,-105.93565368652344,40.34296417236328,-3.1131088003969114,7.33579733841753,-155.98224584925345,172.93424261446984,-42.81429304565031,0.4126795465225201,1.8182307851109567
0.560283,-103.92091369628906,43.452999114990234,-3.1100518041389202,22.33029603845411,-149.98084549350838,187.8637657249321,-96.94542583303326,0.38648553263876806,1.8182307851109567
0.562869,-102.64128875732422,45.21338653564453,-3.118322792042487,18.93921981366409,-136.72168612570778,136.87272892901345,-101.25052798740016,0.36999341001773123,1.8182307851109567
0.565431,-102.04978942871094,45.301300048828125,-3.1326329358613982,22.205368463439996,-54.133842474567885,52.389070651088126,-91.51008372363309,0.36769221610700914,1.827019328917903
0.567802,-103.23229217529297,43.98619842529297,3.139971925341178,20.006296852600595,88.32810879944245,-9.586250754835644,-102.48101402444925,0.3750797330534601,1.896539250150463
0.600115,-105.79000091552734,42.2530403137207,3.135406668520155,-11.24955635076372,154.23814338431237,-37.49571680737568,-104.26225823244657,0.3857646156916468,1.9872413024290791
0.602402,-107.69864654541016,40.91893005371094,3.1344011737275297,-1.8251862018992562,144.787101346739,-44.377070924460995,-106.39703371665495,0.3958466657548672,2.07482699690599
0.605657,-108.28964233398438,40.02699279785156,3.13309851735184,-5.667027591153444,108.48450247414866,-52.703471088772986,-107.28244503622969,0.4054264232539398,2.1598901680121765
0.608704,-108.39674377441406,38.959259033203125,3.127407668282003,-3.174043762261697,76.53863538629933,-88.10425617958445,-95.57126310530128,0.41807917570018177,2.2648634497351
0.640092,-108.03401184082031,37.57308578491211,3.1243802346186045,-1.537457652923299,35.947572469722246,-106.5535533542727,-106.79310061195245,0.4308115892059802,2.371132252539639
0.642112,-107.51374053955078,36.67427062988281,3.12761144235668,-5.977624040357426,0.17375523668879067,-86.13104184912444,-105.21539600016678,0.4391771159494401,2.4507630977355808
0.6441869999999998,-107.11367797851562,36.474483489990234,3.1325231986720787,-4.840128604851734,-19.164848282706288,-55.66223732023622,-106.15410652448777,0.4433341091146067,2.504476568134832
0.646193,-106.72872161865234,36.38682174682617,3.1335428665984333,2.171453527487042,-21.922127348748734,-49.226358386102895,-91.05920310670206,0.44650580101130233,2.552260399664655
0.68042,-106.33200073242188,35.967491149902344,3.132747457400398,5.114328683516011,-20.410592825046574,-53.88965638155076,-103.11591523847713,0.44986993234097045,2.6014526470914947
0.682755,-106.01309967041016,35.343536376953125,3.1315760926092095,5.602053282239582,-14.518407194130013,-60.84365980574292,-92.06150126712176,0.4535639095017646,2.6529287516035205
0.684647,-105.74791717529297,34.607723236083984,3.130490373647747,8.21763110932683,-9.470413307833166,-67.27047166375306,-105.0799422664474,0.45743801987521737,2.705768765900875
0.686367,-105.46251678466797,33.81629943847656,3.1296119629709342,10.31712624603026,-5.121631863286048,-72.39747120195308,-103.86707499993257,0.4612912422827241,2.7587209547712694
0.72093,-105.19950103759766,33.01000213623047,3.1290935563222537,8.501268374989948,-5.217491860739884,-75.3420750361723,-102.77759294922221,0.46489772603438384,2.810364944048694
0.72463,-104.96431732177734,32.25858688354492,3.1292437057940243,5.009030645289687,-9.960237762839691,-74.27050031766734,-104.02975100137878,0.46799607266073234,2.859042815663521
0.726942,-104.70117950439453,31.601343154907227,3.1297378420478053,5.101449508062307,-15.456101667166262,-71.11958378937872,-103.72336281682429,0.47052204160410005,2.9043190070904776
0.729058,-104.4458236694336,30.960025787353516,3.1297665165757427,3.131950587067378,-12.649443748519207,-70.77450897213133,-101.25157702932229,0.4726446291977718,2.9472193900573473
0.762404,-104.29586029052734,30.232271194458008,3.1293674190313916,3.013446591524245,-6.621742895601363,-73.05812807961173,-102.2640673103277,0.47445706340796906,2.9883043879540163
0.768084,-104.19124603271484,29.4066104888916,3.1286282324694845,2.810185711353366,1.962744717679432,-77.39828299523712,-87.05027024381937,0.47598452295212973,3.027712715816123
0.771775,-104.13650512695312,28.527828216552734,3.1284929807592463,3.369220046332808,9.602095939936428,-78.16474633332845,-91.00147730897174,0.4771180864107128,3.064742094694425
0.773763,-104.1004867553711,27.699857711791992,3.1290299051005803,4.819769091596395,16.548829481530753,-74.9346884031269,-91.2685292959859,0.4778295959223701,3.0991908543072433
0.800699,-104.07743072509766,26.94123077392578,3.129755207357482,5.965966614991507,21.904773545615026,-70.59232733639959,-97.08495336315843,0.4781850457319886,3.1314471302928277
0.803752,-104.05821228027344,26.238773345947266,3.1306091521236765,7.280740037291704,25.258954796055935,-65.48732783751616,-103.29723241931448,0.4782601696377666,3.161964400248392
0.806779,-104.049072265625,25.60108184814453,3.1316550260311917,7.360286127912964,28.734667309946172,-59.24583950225598,-103.13561834570562,0.47813222751790396,3.191210488909474
0.809297,-104.04743194580078,25.06168556213379,3.1332251802059017,9.539607392993627,30.27308204312692,-49.883678716351994,-102.81590188938605,0.47789837370442,3.219783075932859
0.840284,-103.97383117675781,24.631046295166016,3.1345410108576623,15.37029912326527,31.68425035207033,-42.00917752790639,-103.00079297103663,0.47762657729603103,3.2481025691329717
0.842366,-103.83081817626953,24.202695846557617,3.134953002198412,20.148573108106543,35.39957614732837,-39.50031585707189,-102.83910615023241,0.47728924145945434,3.2759931884888567
0.844423,-103.6696548461914,23.68614959716797,3.1344922618808098,23.84787869466632,37.70821423773853,-42.17585463422221,-59.489953768255454,0.4767936038638627,3.302867973122679
0.846486,-103.44386291503906,23.081483840942383,3.1335753884662187,27.63382523084771,33.70773145972704,-47.51852081055998,-102.82497859696231,0.47605636037449023,3.328193561325986
0.88059,-103.13619995117188,22.439321517944336,3.1328080136448913,29.558842331429517,27.388923675515024,-51.912135616819064,-102.26640672774565,0.47508340000091687,3.3519917742912257
0.883135,-102.77238464355469,21.828527450561523,3.132809952248492,33.748886764570955,21.226262553465958,-51.71759816887876,-101.70524619272939,0.47401848336643815,3.3751510761258046
0.885662,-102.35567474365234,21.33082389831543,3.1338016320318944,36.32816085555911,17.027835770665625,-45.69174573590505,-66.09862193820068,0.4730871347299447,3.3990826997573227
0.887854,-101.9598617553711,20.98711585998535,3.13554158333087,38.15762702474703,17.143443552557258,-35.34999580414325,-101.53788100389738,0.472490704999059,3.4250601625749653
0.920981,-101.58990478515625,20.78710174560547,3.1375232696991286,40.120015505372564,19.276363073737794,-23.686682815159436,-99.43327221753897,0.472327098654711,3.4537196601502864
0.924007,-101.23628997802734,20.681745529174805,3.1391745343882715,41.90567967141319,24.601788145063157,-14.026115333285821,-100.24646345623619,0.4725445397525301,3.4847630697257808
0.926726,-100.9074935913086,20.6188907623291,3.1406835622282245,45.00437257330789,34.88073107231211,-5.255979976712906,-99.36203270129452,0.4731342854634048,3.5181594004029315
0.929192,-100.56924438476562,20.58968162536621,-3.141285126907922,50.74182709876698,45.44559937859613,1.772028226971222,-99.2998060099359,0.4740301142041299,3.5535159622918706
0.960503,-100.18974304199219,20.564638137817383,-3.1407863729025642,54.450578836948885,51.21049418904575,4.628414511809318,-91.78294177194688,0.4749939240049195,3.5893559483583886
0.962686,-99.78820037841797,20.524446487426758,-3.14030471366353,59.72565346126021,59.51209393648142,7.363726835707358,-97.87638781044139,0.47602445268074084,3.6256756994360093
0.964756,-99.34136962890625,20.437498092651367,-3.140726389728936,68.2616004142136,72.84626244174711,4.930637575977689,-98.4892351074,0.4767489116822833,3.660137108059573
0.966801,-98.86185455322266,20.289636611938477,-3.1405399910963414,73.8443989662961,84.76279103383081,5.96266891428286,-6.982269651102176,0.47743526853369794,3.6944046329148237
1.000691,-98.3367691040039,20.24762535095215,-3.1392924207094226,83.31470896751807,90.18536017817398,12.960183204808937,-98.05982340191977,0.47859324120583124,3.73167853243829
1.003292,-97.7389907836914,20.41448211669922,-3.1368454473878336,87.76289015505638,95.83985522597409,26.584704759239166,-96.11537837906427,0.48084178639150066,3.775877458724017
1.005903,-97.32080078125,20.793001174926758,-3.134336798276523,76.63791218588547,95.82083314913561,40.459875473188646,-94.41127654111821,0.484282557874931,3.8277086440273997
1.008339,-97.25003814697266,21.252840042114258,-3.1332114079495357,54.25680978529021,89.97447125736066,46.70153456317807,-93.95242412661493,0.4882634098345179,3.8831494450915636
1.040992,-97.46358489990234,21.595619201660156,-3.134219656218385,32.18870080341079,83.44484456177432,41.17342192068529,-26.315024856366968,0.4916057692683898,3.9348286036048368
1.043783,-97.7117691040039,21.669727325439453,-3.1374142059611727,19.092101645403776,64.49041391682862,23.393058105382465,-91.6945586073336,0.492928428595354,3.9740276187183414
1.046877,-97.55812072753906,21.783611297607422,-3.1360550607604343,25.75637527519316,15.419817994747861,30.953625016554067,-96.73906406531205,0.4951869679615829,4.0191900466803325
1.049561,-97.00808715820312,22.496976852416992,-3.1318676792466857,12.423670137957144,-45.07832303145162,54.05460886510115,-95.99662214291625,0.5003564377808805,4.082784298308882
1.080523,-96.84659576416016,23.61252212524414,-3.127873238102483,-18.205116204312993,-62.90797519935255,76.132457696737,-57.19139987990602,0.50856519186096,4.165799743517264
1.083153,-97.2236328125,24.784236907958984,-3.1255971348783076,-33.35188543415855,-51.99172098102805,89.11069821416417,-96.74621123318151,0.5189856989811276,4.263227814160498
1.087173,-97.65267944335938,25.865217208862305,-3.1247651294659766,-36.68049957898881,-39.61816735610588,94.16033902982464,-96.61319351743015,0.5308466291510224,4.37036106951821
