Time [Sec],Roll Angle [Deg],Pitch Angle [Deg],Phase Angle,Angular Velocity X [deg/s],Angular Velocity Y [deg/s],Angular Velocity Z [deg/s],EKF Roll Angle [Deg],Step Frequency [Hz],Phase Variable
0.0,-62.58460235595703,-15.631062507629395,3.126365789404229,-24.363988278919994,2.207825992364653,-54.60522114994715,-61.964952827680236,0.4,0.025132741228718346
0.002647,-62.73288345336914,-16.567909240722656,3.1184848797581615,-24.70215435982191,59.82139905304545,-83.07173864817321,-61.26649992102146,0.4003170268072009,0.052257420634423235
0.040455,-62.09696578979492,-16.60102081298828,3.112243898427476,-24.834296322146855,70.74919629106726,-104.44975263707121,-49.39871192019576,0.40110822125250073,0.08238130255874161
0.042648,-61.9015007019043,-17.41257095336914,3.1120364813999033,-16.11780527131522,53.33712822864258,-104.85725538333251,-61.528350080796194,0.4022757422567977,0.11491942620239029
0.045729,-61.67778396606445,-18.1790714263916,3.1152248776143368,-4.801190550167138,29.33336071145447,-93.20207031946101,-1.8501853139215776,0.40358507825115564,0.14842195721612836
0.049814,-61.476661682128906,-18.857275009155273,3.1182137736470823,0.24434147982074364,11.675533051182613,-82.36368025767466,-60.90142212225729,0.40492016706011474,0.18216856594300562
0.080647,-61.31645965576172,-19.455270767211914,3.120262326162888,1.9736508222366498,10.103962872223331,-74.94852636638534,-60.70846965545748,0.4062630037196005,0.21604774195435694
0.083647,-61.12256622314453,-19.90534019470215,3.1217089318921825,0.6057886340346187,21.288681944743413,-69.64326572103714,-60.35267469849888,0.4076158469768078,0.2500741641891753
0.086293,-60.89219665527344,-20.214597702026367,3.1216454470737762,-3.458644938371435,41.082850197196336,-69.60235971809794,-56.9942744777135,0.4091478169172545,0.2853110742170128
0.08934,-60.59718704223633,-20.446054458618164,3.12027299313491,-6.862099386928228,65.10970716887367,-74.03229064017398,-27.152091935022277,0.41108072885875857,0.3231634336451343
0.120556,-60.21964645385742,-20.633441925048828,3.1183218272374766,-10.348500719982713,87.37260631569268,-80.30656388345022,-60.03184062229786,0.41358639915589135,0.3647359883970157
0.122919,-59.82381820678711,-20.80979347229004,3.1168065129313125,-14.098614376230922,100.77388142955375,-84.97567436988177,-55.72071745947816,0.41669295516976373,0.4102414553635652
0.125269,-59.45540237426758,-21.000244140625,3.116580336226241,-14.774952514450277,102.59112839031651,-85.2233233688081,-58.96341182995295,0.4202427572902448,0.4587271104256455
0.127486,-59.10073471069336,-21.228029251098633,3.1167913052420784,-12.6902848646613,95.38704100475893,-84.00011162053967,-0.6267905203991332,0.4242095028178399,0.5100555388224988
0.161314,-58.75587844848633,-21.530519485473633,3.1169651852612885,-9.999105808085295,84.01121067794095,-82.92424754323595,-58.55614350016708,0.42866663660106247,0.5647144054740869
0.164449,-58.437015533447266,-21.91417694091797,3.1169809542599607,-8.11590227182866,70.76698210366598,-82.42139535616127,-57.22451462300555,0.4337263286310948,0.6234393072237384
0.167645,-58.13701248168945,-22.354082107543945,3.116978604781109,-6.179227318994108,61.25812251476846,-82.00609253386781,-56.882297970317225,0.4394590531421314,0.6867109065955102
0.171144,-57.807716369628906,-22.80708122253418,3.116561678762793,-3.609544521147938,55.738537363454434,-82.92336644883302,-57.15447290074935,0.4460372807734919,0.7556551564542542
0.200604,-57.438743591308594,-23.26647186279297,3.1162122321707515,-1.7954868318407482,52.6160958938156,-83.54484536141247,-56.791733964296995,0.4534492859450128,0.830251507334797
0.202822,-57.0412483215332,-23.722835540771484,3.1155480661040174,0.13138675951419498,51.75971311530106,-85.13876562688333,-55.77086042412396,0.46176285663559297,0.9109782714580565
0.205158,-56.601505279541016,-24.18067741394043,3.1149531754663315,2.078720049125779,51.46656822631328,-86.41299888825174,-52.614005968706955,0.4708445847703019,0.9970538681999993
0.207451,-56.1368293762207,-24.641008377075195,3.1144043877632477,3.6502819037920093,50.251542459765126,-87.46998432268956,-55.21120377502005,0.4805204169570544,1.0874329526004765
0.240811,-55.668827056884766,-25.098129272460938,3.1141142298144326,3.643238698097257,50.393118620881154,-87.66693965759605,-25.769854296035994,0.49052459243869234,1.1804830292333939
0.243973,-55.22358703613281,-25.53251075744629,3.114017805758953,1.9834587604413765,50.02745761347535,-87.27110287443712,-54.71488382124561,0.500673499547031,1.2750710623806485
0.247248,-54.80440902709961,-25.973880767822266,3.113743755713969,1.337122334873007,47.62341885583304,-87.4698613792845,-43.57098755388548,0.5110400084769795,1.3716640027365272
0.250777,-54.423397064208984,-26.467098236083984,3.1135138695418383,-1.1008048332231475,40.54594268691997,-87.57915123619387,-49.24024809924211,0.5216578973091961,1.4704877565668122
0.280731,-54.10980987548828,-27.028076171875,3.1137531827499174,-0.981935849446242,30.957453337583857,-86.33200650507374,-6.897268209490123,0.5323628896111838,1.5705259392696056
0.283128,-53.79811477661133,-27.63272476196289,3.1137880614816296,0.36372190069218013,22.540201412026946,-85.72710446160988,-47.87090342923707,0.5432428333252403,1.6723359886176323
0.285525,-53.485965728759766,-28.256513595581055,3.1141720330438014,0.848626778546872,16.093453939376833,-84.05210985069098,-53.22144655493199,0.5540099046246375,1.7741204466931575
0.287827,-53.192543029785156,-28.870683670043945,3.114946784588772,2.0926920548466863,10.005576558550237,-81.22805885532249,-51.54651383491754,0.5642744984953996,1.8734242610137906
0.32005,-52.88676834106445,-29.477880477905273,3.1156517203757055,4.960091059226076,5.315562278163866,-78.62355746063488,-41.96695366913179,0.5738456519249282,1.96901600399659
0.323296,-52.56181716918945,-30.07628059387207,3.116248159099818,6.042297820947808,2.1708960132960398,-76.34307340998352,-51.75986078160337,0.5826009803213819,2.060083140424356
0.326493,-52.240238189697266,-30.654272079467773,3.1167296196416947,6.9802147020189045,1.5407201354690379,-74.43400821620828,-51.81684463972352,0.5905150677646404,2.1464147175626094
0.329961,-51.902774810791016,-31.193313598632812,3.1172767700286492,6.993659929400074,2.7075800483204957,-72.32507119675095,-51.4151996007888,0.5975666674057092,2.227824380793956
0.35983,-51.55152893066406,-31.68801498413086,3.1176432754817496,7.200207838109022,5.3843260614066155,-70.7524474611122,-50.94210723821693,0.6038905355024746,2.3051046369511323
0.362152,-51.175079345703125,-32.14213180541992,3.117987565564491,6.982621063040864,8.61508920863998,-69.22571576650675,-48.9817889553602,0.6095663169287304,2.3787101848134853
0.364661,-50.79761505126953,-32.56142044067383,3.1181519769354806,5.375785763623161,11.879979396061312,-68.23632871428455,-50.08732393990397,0.614721920330807,2.44940397762184
0.366859,-50.409366607666016,-32.95298767089844,3.1181421279359762,5.291177222166451,15.71363907246347,-67.74325735810133,-49.923892998726785,0.6194475782792885,2.517720279588733
0.400267,-49.979583740234375,-33.32220458984375,3.118026882979711,5.646841393948294,18.225828752971058,-67.49588839693098,-49.09235186223295,0.6237766341813757,2.5838415792508105
0.403353,-49.53363800048828,-33.6865119934082,3.117414177031409,4.72424932294059,21.19544303238357,-68.63354519565581,-18.225835352324758,0.6278175259763512,2.648424293033406
0.40633,-49.08238220214844,-34.046077728271484,3.1167444188483278,3.1680667064077013,23.814361248861776,-69.89292279557945,-47.35197941837137,0.631532132517814,2.711210792824723
0.410014,-48.621891021728516,-34.40562057495117,3.116035825771846,2.953747963413983,25.010448608388774,-71.21246070171256,-48.30931946164801,0.634878158644582,2.771914829182347
0.440033,-48.13480758666992,-34.78579330444336,3.1150001997805936,3.2761785691286596,24.883224382266242,-73.35718791242074,-47.70867373825338,0.6378663599304069,2.830580822778786
0.442387,-47.63877487182617,-35.219093322753906,3.113851672387499,4.014464602129328,20.8959870486027,-75.73845823446483,-46.55956794819282,0.6404674533792312,2.8870023003256287
0.444778,-47.15278244018555,-35.73445510864258,3.1128516204157775,6.084221095186523,14.075136454732649,-77.66975569398846,-46.309922732322114,0.6426347023670465,2.94086128425086
0.448467,-46.66108703613281,-36.34148406982422,3.111552015682728,9.376464909573286,4.997595201071793,-80.33731339509362,-46.1759300718487,0.6443879367465438,2.9922551099421244
0.480085,-46.15044021606445,-37.04426956176758,3.110551396407346,13.976261782533898,-4.79033225693411,-82.10645533353198,-45.68830661086912,0.6456986656033925,3.040978750400069
0.483234,-45.633853912353516,-37.80221939086914,3.1097851833882686,16.48474181654852,-12.535241278049302,-83.19273544931998,-45.20355139193993,0.646573578471606,3.087046433764537
0.486574,-45.14436721801758,-38.5742301940918,3.1090939597588707,15.85126226159735,-16.88533070382248,-84.09013351380044,0.5702604206414089,0.6470419119957735,3.1306144761650803
0.490087,-44.63881301879883,-39.309444427490234,3.1086267544199484,16.69129527478617,-15.472579498538918,-84.3446536830318,-44.54923741463802,0.6471339545750071,3.1718476390923676
0.520066,-44.037010192871094,-39.95030975341797,3.108692599918669,18.629578310283435,-10.610018418018747,-83.04123502333992,-43.44996071503637,0.6468932760838269,3.2109960370844566
0.522424,-43.37032699584961,-40.47905349731445,3.1096804350128315,20.338841687815588,-4.443993854690273,-79.32677324701189,-42.96357755470307,0.6463948430442956,3.2485097932098927
0.524836,-42.685508728027344,-40.88523483276367,3.1118706088835633,22.581401113100462,1.6449034654784753,-72.71260246987913,-42.279546431664926,0.6457517671166942,3.2850834137947134
0.527128,-42.029666900634766,-41.1679573059082,3.114488911100537,21.24254060180539,8.0568663855113,-65.28512008713794,-41.632259667949356,0.6450602222067637,3.321312089129712
0.5604690000000001,-41.51077651977539,-41.34971237182617,3.1179951567852706,14.942310932135808,11.684832353737585,-56.13452441077509,-40.954653604942074,0.6444387139007147,3.3579373663770102
0.56355,-41.20254135131836,-41.448238372802734,3.1225107124040563,7.532408602544578,13.851418731110758,-45.05281227490162,-40.41372854331469,0.6440240958761683,3.3958235230826745
0.566634,-41.06678771972656,-41.44910430908203,3.127657799489198,0.7446732737308348,15.616920178721504,-32.790187752289626,-40.67696207669121,0.6439395060290375,3.435757256764833
0.570075,-41.06859588623047,-41.37688446044922,3.1328227296615907,-3.3643825648531465,13.938815270409304,-20.63666184129024,-37.06712823471249,0.6442584916921741,3.4782214152265953
0.60006,-41.17214584350586,-41.27638626098633,3.138003610439043,-4.076813130194143,10.471355332583732,-8.466553938533359,-37.155400029489776,0.6450577865915477,3.5237234880847024
0.602392,-41.308353424072266,-41.102745056152344,-3.1396944900648287,-1.0202810650552225,10.451057717917747,4.492568025633288,-41.021511715809126,0.6464648582738103,3.5730945562747816
0.604948,-41.39132308959961,-40.788856506347656,-3.1344404820871747,5.31825593401779,13.834677083681411,16.962008114992333,-40.752608676735335,0.6485490650463774,3.626808598636439
0.607193,-41.37721633911133,-40.335670471191406,-3.1296613720837776,13.63571794202717,19.2955627354947,28.287306994783265,-40.883156883467315,0.6513495612300361,3.6851541746752594
0.640284,-41.28326416015625,-39.7624626159668,-3.125080120780477,21.52947684883763,24.608942768218746,39.06158207083071,-40.5325628536445,0.654974642632397,3.7488567328094877
0.64355,-41.182613372802734,-39.088584899902344,-3.1204374258190835,26.55154760591334,28.996601649521576,49.925110643857295,-40.24661483512519,0.6596385535761247,3.819314220036742
0.645755,-41.15229415893555,-38.3198356628418,-3.1151995231621785,28.677942588889216,31.52586168031232,62.24556979326638,-40.371860354659226,0.6657728251002593,3.899303297426221
0.647836,-41.242855072021484,-37.46134948730469,-3.109450007954561,28.518947737842367,31.75879503667185,75.98057478016344,-40.75927958286686,0.6739438985903689,3.9924754066490564
0.680251,-41.45524215698242,-36.52797317504883,-3.1034617062274554,28.767636633069824,29.490277477446345,90.61294368059511,-1.7034127476259806,0.6848096385640161,4.103092008417974
0.682506,-41.75713348388672,-35.55027389526367,-3.0977529272495916,29.93779830205475,23.780695246442782,104.95412112614163,-41.50559987045071,0.6989429719870962,4.234922219915744
0.684652,-42.15312957763672,-34.5800666809082,-3.0931583251297514,29.427624152189818,14.708332556833266,117.06997512877382,-41.467963747153,0.7164118223332273,4.3885981258653315
0.686711,-42.587181091308594,-33.65556716918945,-3.089261943864662,35.857820368933695,2.8565456203448276,127.80705982479054,-40.35490413028362,0.7367238475907214,4.561235826882018
0.720285,-42.965782165527344,-32.76450729370117,-3.084394239072013,44.84878427910959,-10.913303576603054,140.9624139775853,-41.8387706303256,0.7594061056521064,4.750042382013276
0.7237660000000001,-43.34334182739258,-31.806961059570312,-3.079689319188134,49.249779104766866,-15.67576567351575,153.92682336194318,-42.80743965242966,0.783845912162631,4.951317108042674
0.727932,-43.588348388671875,-30.647705078125,-3.0758041383291754,60.216552817287365,-8.220581751048273,164.53955763393066,-42.885920725903745,0.8095481541985411,5.162059548748208
0.731998,-43.727176666259766,-29.348031997680664,-3.0728598954176363,56.19392315089211,-6.5727738543469565,172.47354635495248,-43.29004673705185,0.8351610337817972,5.3738554280994295
0.760168,-44.201541900634766,-27.95272445678711,-3.0693415767149084,35.12289201424032,2.4949970271496076,183.29938252904435,-42.48669757688941,0.8587016298032668,5.574240070509645
0.762303,-44.86194610595703,-26.30406951904297,-3.0670705639433353,23.874820375847435,16.29572316145759,191.90697816639118,-37.89020160567269,0.8780822658622116,5.749966012875312
0.764936,-45.35551452636719,-24.56818199157715,-3.069375823729989,17.363175860798446,28.8386159589246,187.9953288287249,-43.855440907340196,0.8924178395095383,5.89521061449979
0.767464,-45.7302131652832,-22.956825256347656,-3.073728957059114,12.070057584247243,34.25947414088067,178.08641822995054,-44.73821069582407,0.9025936002845814,6.015219071661628
0.800834,-46.102577209472656,-21.47614097595215,-3.078106182970749,4.594809554206032,38.43811557320277,167.92410761296873,-45.60541456024685,0.9095521242161392,6.115652395464673
0.804683,-46.46647644042969,-20.019432067871094,-3.080786228500796,2.8551742464255363,41.70913073276232,162.08676840108737,-45.502429125036784,0.9139641038126814,6.200522526271131
0.808158,-46.746376037597656,-18.552627563476562,-3.0822283039454854,3.878176714978186,42.19388291853646,159.18673838139165,-35.89722298791224,0.9161781717745577,6.271859983841943
0.812145,-47.0023307800293,-17.120115280151367,-3.0827808722874677,3.908120691186345,37.01747037678597,158.5650545631371,-46.72812601544498,0.9164849252212249,0.04816723768790876
0.840691,-47.28642654418945,-15.732490539550781,-3.0816320132449584,4.435325917746704,28.48902980173042,162.64708979983854,-43.3218126381902,0.9151531791266616,0.09738407635767038
0.843096,-47.593162536621094,-14.361331939697266,-3.0804839653539537,3.4737558781364415,18.851216241303057,166.84424104481138,-46.51733124217197,0.912446103356984,0.1378757877452836
0.845436,-47.923004150390625,-13.06420612335205,-3.080748311400418,2.166879648620661,7.207419664098909,167.27200213215093,-47.33172261507578,0.908718664293409,0.17178627688968082
0.847595,-48.226070404052734,-11.901336669921875,-3.0823608176858444,3.5337723234865206,-4.053193055383769,163.85813698119517,-45.798853118547754,0.9043366439092294,0.20134970839452473
0.881199,-48.43537139892578,-10.870821952819824,-3.0847718306222167,7.787880729391504,-14.128654401974284,157.85579405934465,-37.99665650956233,0.8995938150849312,0.22837078314877196
0.884916,-48.54522705078125,-9.946696281433105,-3.0869972931129825,12.489409854944869,-22.32920320818691,152.00458956344815,-48.12714324977628,0.894638549709859,0.25375907896465544
0.888685,-48.61003112792969,-9.0726957321167,-3.0884772789447066,14.455139151848186,-27.892383749425832,148.073542488539,-48.1903056279602,0.8895023767931336,0.2776993506668873
0.892554,-48.68730926513672,-8.201258659362793,-3.0894347699316196,13.781504914766508,-30.861379896718457,145.6305340865872,-31.987995594138514,0.8842004091193292,0.300275187925377
0.920411,-48.78705978393555,-7.336485385894775,-3.0908011078283426,11.798608791158012,-32.725218992904466,142.09944922909565,-48.586372892560796,0.8788458829188813,0.32218765776762326
0.923229,-48.87955093383789,-6.519436836242676,-3.0926509325316007,11.532547309776627,-34.73161779744697,137.1753336300017,-7.549916332572097,0.8735486525714103,0.34412369326795983
0.925537,-48.93464660644531,-5.7700395584106445,-3.094632703293134,11.647554888794948,-37.33244796545569,131.76076946736578,-48.31326121813364,0.8683545756700469,0.36637502618638423
0.927917,-48.96219253540039,-5.085599899291992,-3.0971337592408776,12.200915471008225,-38.30362231825605,124.80397591089768,-48.37652242149567,0.8633596723459035,0.3895514501220658
0.96115,-48.970741271972656,-4.450745105743408,-3.0996479970110773,11.657537210266922,-37.71832291771015,117.75808936689592,-48.49785917754872,0.8585615700169136,0.4136505721471635
0.964679,-48.993526458740234,-3.844696044921875,-3.1022230120159864,9.52235518892382,-35.44978145282255,110.57253228455657,-48.47014422668097,0.8539579864795062,0.4386704181249444
0.968318,-49.05049514770508,-3.2500619888305664,-3.104917797169572,5.933909549008876,-30.318762348295966,103.11675242808401,-44.37944100884106,0.8495529836244465,0.4646487316439167
0.972378,-49.14805221557617,-2.639789581298828,-3.1078155647222356,1.536907289086584,-21.500264129757483,95.15165902558195,-10.894220410632524,0.8453656539773909,0.49171795177301647
1.000474,-49.282127380371094,-2.0089776515960693,-3.110802107571941,-2.874855436518928,-12.175467039934404,86.96945439993267,-48.56544144105465,0.8413911456425558,0.5198612699629682
1.002781,-49.437217712402344,-1.380552053451538,-3.1138889079589838,-5.995117008595475,-3.0746762492256474,78.49215828138219,-49.06767814506537,0.8376321421210254,0.5491089191057756
1.005141,-49.60791778564453,-0.7496095299720764,-3.1166865351675774,-9.549436888982921,6.811525678105691,70.80590735174589,-48.267196415853846,0.8340035120467771,0.5789395436200306
1.007436,-49.83287811279297,-0.10564474016427994,-3.119556203822219,-14.987782916535167,16.302780454417505,62.92895754048283,-49.39276857946543,0.8305181927865031,0.6094426229833311
1.041166,-50.13916778564453,0.5179993510246277,-3.1224055166814075,-21.36242066702287,22.958570989257737,55.12685635723936,-4.983011624617505,0.8271691942426406,0.6405832416013841
1.044839,-50.541229248046875,1.080912470817566,-3.1258548189271944,-29.88094039230898,27.693442537018164,45.5773708031586,-50.43708476742804,0.8241309595064463,0.6734660230253344
1.04809,-51.04037857055664,1.5358420610427856,-3.1295641118490933,-37.24047946828147,27.460305982530826,35.17794333895063,-50.30010945974029,0.8214796198072045,0.708588839742344
1.051559,-51.541534423828125,1.8283945322036743,-3.1331124063394418,-38.52576056063238,20.356361123036674,25.043723582477785,-49.72308434053313,0.81918504486325,0.7457866869414673
1.080589,-51.92735290527344,1.9436131715774536,-3.1359418072267573,-33.26137518237213,8.846870824350717,16.812679689168345,-50.70740463349706,0.8170664453164191,0.7839460477744831
1.082821,-52.1693115234375,1.9017210006713867,-3.138132436148092,-25.815044892616278,-6.464140976258373,10.342912771467995,-51.70430826775829,0.8149989959804083,0.8222936793251375
1.08508,-52.344417572021484,1.7034850120544434,-3.1403049631534636,-21.67936876526814,-22.28232591236582,3.8619328175846026,-9.947400795736947,0.8130912979198586,0.8615151560696593
