Time [Sec],Roll Angle [Deg],Pitch Angle [Deg],Phase Angle,Angular Velocity X [deg/s],Angular Velocity Y [deg/s],Angular Velocity Z [deg/s],EKF Roll Angle [Deg],Step Frequency [Hz],Phase Variable
0.0,-105.08396911621094,4.109244346618652,3.1321993935667725,-3.6247766967707125,15.02493402297816,-56.5572414034126,-104.04353377842668,0.4,0.025132741228718346
0.002526,-105.14231872558594,2.94295597076416,3.131812933038217,-3.2140451920227,5.252450049572479,-58.91697955409821,-103.95309637372708,0.40021987367489287,0.05164698950095944
0.040451,-105.09895324707031,2.946416139602661,3.1313976924166163,-3.2341741863935507,-3.7047979124261126,-61.39339441128056,-103.53114386096847,0.40066085473689805,0.07956431152964819
0.042492,-105.12517547607422,2.3562750816345215,3.130957882280972,-4.625984245125263,-10.837240882458499,-64.05807660274515,-104.05793263215318,0.4013280916033419,0.10893094836174533
0.044426,-105.19132995605469,1.7417222261428833,3.1304678329290234,-6.932342759899931,-14.913209203629675,-67.05227444052782,-104.04904199786517,0.4022341778916482,0.1398402441006741
0.046503,-105.28653717041016,1.0867310762405396,3.1299323921179956,-8.382768007984811,-15.613231876569698,-70.34341475247682,-103.64897339228237,0.4033992855599088,0.17243395024891411
0.080962,-105.37940979003906,0.3779444098472595,3.129297625818724,-8.411887665737515,-13.706965352806867,-74.23860333424338,-104.13944180739392,0.40486155022908676,0.20696795477306834
0.084452,-105.45608520507812,-0.3941733241081238,3.1286633105620405,-7.699902770239862,-8.632190294774398,-78.12588255695108,-103.08071736398509,0.40665562332494215,0.24367864992736685
0.088741,-105.52206420898438,-1.2170075178146362,3.128257125109418,-7.0174806410173165,-1.6962918878029472,-80.63097054826915,-104.20815486530155,0.4087731643215463,0.28253447878015286
0.093923,-105.59555053710938,-2.052699089050293,3.128250898113155,-7.675149310914089,5.964609968667613,-80.72480368708678,-104.26411232408134,0.411148694131584,0.3231443481796932
0.120925,-105.6964340209961,-2.8633484840393066,3.1286854210996813,-9.313850004130842,13.780200348635036,-78.1700192393677,-102.8149721961374,0.4136743428030067,0.36484670114341045
0.123941,-105.82567596435547,-3.61506986618042,3.1296299295082126,-11.680478961915348,21.297685841616783,-72.5378179290185,-101.86557442793591,0.41618064278106726,0.4065861738675151
0.12716,-105.9654312133789,-4.280190467834473,3.1309475097861217,-12.758045463869703,28.478010999051897,-64.6330692478335,-10.533401181027044,0.4185008083609033,0.4473136051475103
0.130358,-106.0751724243164,-4.855566501617432,3.1323709443066097,-11.858771658688422,33.98865714028967,-56.04799957436937,-105.72428654977848,0.4205425154199362,0.48643721024375053
0.161278,-106.14726257324219,-5.352465629577637,3.133642061729354,-10.596449393458869,36.254954888034916,-48.354850153671364,-105.30493420688886,0.4223214242840317,0.5240378898207559
0.16513,-106.20994567871094,-5.779978275299072,3.1347065362613895,-9.922595736550106,33.6341259261364,-41.90531425629259,0.9666878160304265,0.4238948120269288,0.5604590142491094
0.168583,-106.2917251586914,-6.12752628326416,3.1357722909642454,-10.566011509196354,27.70307993393705,-35.44680007524984,-99.6253819945383,0.42522920122441304,0.5954773253959741
0.171842,-106.40013885498047,-6.377438545227051,3.13696509335734,-11.190323242734078,20.91816296529044,-28.211099159118845,-104.27796136400318,0.42621764717904936,0.6284058531882555
0.20025,-106.51477813720703,-6.523864269256592,3.1382709930120267,-11.366962179954362,14.74117381390998,-20.271661654686636,-105.28489368732782,0.4267465100578626,0.6585088412420882
0.205232,-106.62129974365234,-6.580386161804199,3.1395182789320373,-10.866901832702926,10.561965475886767,-12.672270240725389,-104.89424493693197,0.4267961710784078,0.6856341446555745
0.209114,-106.7056884765625,-6.579525947570801,3.140649828341205,-9.751763313897978,10.56247517875358,-5.764233135873773,-105.34023930462808,0.42638994189975077,0.7098981257616928
0.213509,-106.75614929199219,-6.551327705383301,-3.141584678260479,-7.959372265298538,13.992705462960703,0.048782511723020276,-105.72605259961787,0.425604377463352,0.7317531490178061
0.240156,-106.77194213867188,-6.515100479125977,-3.1408194610405014,-6.28055488287854,19.730176210119073,4.730069497887087,-105.6278445141027,0.42453239993536224,0.7517592272758044
0.243785,-106.76739501953125,-6.486174583435059,-3.140312808146487,-5.17444886236411,26.515748876926008,7.829229840853115,-105.50510654262348,0.42332546260740905,0.7708499737670782
0.247205,-106.74364471435547,-6.475489139556885,-3.1399721631320996,-3.5616717252553185,33.48907661382742,9.910864032876962,-104.75348594938521,0.4220799285034201,0.7896223754534023
0.250284,-106.69121551513672,-6.482985973358154,-3.139784551606549,-1.9527126638925643,40.160159942219316,11.052860563045693,-78.27623528801564,0.42088617664613753,0.8086418753755877
0.27999,-106.6263198852539,-6.512738227844238,-3.1397698943451924,-1.2481137642086337,45.548574725617826,11.135682583147622,-10.471257342375694,0.4198491915236861,0.828571364101417
0.283059,-106.54325866699219,-6.550607681274414,-3.139653580955958,1.2429170574673118,48.67849525239783,11.83704311939132,-105.2856834890452,0.4188765853161374,0.8488402017826039
0.286015,-106.40846252441406,-6.573774814605713,-3.1396418541443873,4.8686062248224555,48.51981971269468,11.893562934773175,-26.974063468193034,0.4180243226217542,0.8698040694071971
0.289104,-106.248291015625,-6.580114841461182,-3.139620993661764,7.080226600714462,44.58387880724523,12.002650447328387,-106.02532855609572,0.4172621092514001,0.8912801843770592
0.32011,-106.10800170898438,-6.550911903381348,-3.139503397528482,7.589497884948483,38.60261384917336,12.701735676804825,-104.94604859700351,0.41649172076754526,0.9126570423153937
0.32374,-105.99935913085938,-6.471965789794922,-3.139133236545208,6.963612646580719,32.73658784277795,14.936846780799797,-104.86347911392168,0.4154969242056903,0.9325754977791997
0.327229,-105.9162826538086,-6.325222492218018,-3.138465020033488,5.981984262368833,27.653352741684774,18.98028120340691,-88.2603489464416,0.4140351451685978,0.9494973109044721
0.330676,-105.84015655517578,-6.096057891845703,-3.137512484998001,5.872552252147358,23.537456842172997,24.743072315592165,-104.99449300315159,0.41189318126598873,0.962053550190883
0.360797,-105.74368286132812,-5.773003101348877,-3.136335528289093,7.2285625146746835,19.51713919481179,31.851463628235997,-33.195914200060884,0.408931669739619,0.9693258363279328
0.365685,-105.58777618408203,-5.349084377288818,-3.135021590291512,12.022861830856101,15.366501538086743,39.753756856414384,-105.28267370945225,0.4051094295596882,0.9710039275783643
0.369357,-105.31985473632812,-4.8260297775268555,-3.133609953921218,20.073304423453003,12.116148554540136,48.1716918008883,-104.14051237341103,0.40044041959883286,0.9710039275783643
0.373895,-104.9200668334961,-4.209738254547119,-3.132075659982558,30.019415647541816,11.485657207350844,57.21291565807173,-103.9372958914419,0.3949104504897561,0.9710039275783643
0.400332,-104.40983581542969,-3.5092687606811523,-3.130490818626398,38.93126206146687,13.96736460736631,66.41660239485309,-102.50143954934147,0.38855844582889476,0.9710039275783643
0.403811,-103.86910247802734,-2.7212913036346436,-3.128709917908155,42.895879516146614,17.426797365369822,76.67276664122004,-102.88881469028831,0.3813036789813315,0.9710039275783643
0.407006,-103.34181213378906,-1.8237824440002441,-3.1268018330202794,46.796037060534374,20.599701980144008,87.58357036858686,-102.33670490342766,0.3731233401062907,0.9710039275783643
0.409992,-102.80426788330078,-0.8081611394882202,-3.124725421009475,48.529573222829455,24.09417531613698,99.36165102619441,-84.66999697846059,0.3639682808290354,0.9710039275783643
0.440183,-102.3249282836914,0.331213116645813,-3.1225343699482977,45.78189057257088,28.21022318735779,111.74817859544501,-97.27298773125992,0.3538267969278788,0.9710039275783643
0.443383,-101.9452133178711,1.5880191326141357,-3.1203784726728694,41.58000942159781,32.76898684510591,123.93126898026681,-101.16129296331435,0.34279466466547537,0.9710039275783643
0.447275,-101.63823699951172,2.940507173538208,-3.1185295312803767,37.37049553422725,35.93641877080762,134.33057350106972,-100.65056637112598,0.3311685741097863,0.9710039275783643
0.450937,-101.38606262207031,4.354908466339111,-3.1171608072321213,33.58074116758358,36.60184312050694,141.9526821242104,-97.41996251267364,0.3193549561640389,0.9710039275783643
0.480291,-101.18649291992188,5.796204566955566,-3.116335350499665,29.34948678808487,35.43206052702095,146.4618500708478,-100.08627681748526,0.3077759000036941,0.9710039275783643
0.485027,-101.03154754638672,7.213544845581055,-3.116274625966508,26.678134916895768,35.33809078441992,146.58931506113856,-82.12548830676597,0.2969906320747088,0.9710039275783643
0.48911,-100.8993148803711,8.536613464355469,-3.117049661864443,24.408720895341702,37.75594701475317,141.9141052157782,-100.2505091272137,0.2875745381087566,0.9710039275783643
0.493924,-100.7995376586914,9.724396705627441,-3.118326626516693,22.811937073061316,43.15133200619968,134.39458603397108,-99.31650384172168,0.2798054467721744,0.9710039275783643
0.520202,-100.74456787109375,10.798059463500977,-3.1194577083038757,20.55458516558149,51.72852647155078,127.78905544613838,-99.76112091679012,0.27344799272427295,0.9710039275783643
0.523824,-100.80104064941406,11.808451652526855,-3.1203331862376915,13.580075805953662,60.50003298859958,122.80200648403192,-99.66414573870503,0.2681907334993128,0.9710039275783643
0.5270970000000001,-100.98774719238281,12.787214279174805,-3.1209489600345903,8.15491631236777,66.1784200381164,119.46492631972542,-99.58918495642858,0.26373989098019435,0.9710039275783643
0.529976,-101.19013214111328,13.767842292785645,-3.121177848225926,7.042425772526673,69.54907741238267,118.376740581159,-79.20743255646858,0.2597435677258314,0.9710039275783643
0.560256,-101.385009765625,14.771672248840332,-3.121223412734185,5.031569415777082,69.9039808718457,118.33992586153262,-94.96674165616021,0.2560318236292422,0.9710039275783643
0.563283,-101.64940643310547,15.79819393157959,-3.1211873698894,-0.46420777716353995,67.09916368917996,118.8585421252117,-100.97012523521097,0.25251176846162177,0.9710039275783643
0.566524,-101.9972915649414,16.833362579345703,-3.1214067781743458,-5.798491230316441,61.513284721781794,117.98257036415755,-100.25971297948632,0.2493531978548905,0.9710039275783643
0.569629,-102.35417175292969,17.834047317504883,-3.1221080673815234,-8.329775985309269,54.560732712788266,114.28107911706337,-101.19186493433347,0.24690201021888913,0.9712699849293014
0.600875,-102.6240463256836,18.762510299682617,-3.123243397875138,-4.772954975025128,46.23119066145807,107.90435303623694,-101.50460480426672,0.24545917991065538,0.9777177255650581
0.60432,-102.71878814697266,19.612611770629883,-3.1246611420770756,2.4246981588908976,34.460380740222014,99.65744602858014,-101.01347832684397,0.24517843330290365,0.9913763977314617
0.608196,-102.6500244140625,20.402816772460938,-3.126126113135362,8.157223208759943,18.45034731627313,90.97236872528869,-100.83689792438591,0.24599882230633546,1.0119360691616572
0.611949,-102.4878921508789,21.156999588012695,-3.127538982177845,10.041756070583794,-0.6113071600797245,82.5303300432338,-101.53557378003208,0.24773140147178838,1.0382787469765429
0.640113,-102.28157043457031,21.887723922729492,-3.1287869119025773,9.112407234939655,-19.898905788280484,75.0496199962907,-9.471819194527953,0.2500433562199818,1.0683706100998014
0.642465,-102.02640533447266,22.600669860839844,-3.129865176597571,8.746198958626605,-37.51457837476867,68.5582491902456,-101.7630797609381,0.2525762676187445,1.0999960492044876
0.644797,-101.68827056884766,23.28894805908203,-3.1308890208964097,9.389254438794136,-53.19329127491128,62.36505029241741,-100.52738320406358,0.25509352871722674,1.1316823020892495
0.647259,-101.26535034179688,23.944284439086914,-3.1318286538168185,10.06091475120568,-67.36629238761917,56.65328069333215,-100.32349744396569,0.25738350248165764,1.1620986307156749
0.680143,-100.76909637451172,24.567596435546875,-3.132678537365537,11.040946151812252,-79.44024317969331,51.4682962641733,-99.54854023509452,0.259305638814482,1.1903476518915048
0.683314,-100.22547149658203,25.15254020690918,-3.1334832188441313,10.550461729777174,-88.48288088603493,46.569421629157105,-81.36738289976687,0.2608317696001648,1.2162292682196214
0.686648,-99.68553161621094,25.689594268798828,-3.134238705828745,9.081530511022967,-93.25417783263904,42.00327282936892,-99.11082219477731,0.2619733394451963,1.2397905065210164
0.690057,-99.16399383544922,26.17448616027832,-3.1349323365273247,8.14253488694983,-94.23461733704852,37.84233866247007,-90.09248038168496,0.26275654497832357,1.261171802392012
0.720391,-98.63060760498047,26.60155487060547,-3.135706907619562,9.618916988314876,-93.24600209620253,33.261426408790896,-97.63154339631944,0.263344181655988,1.2813735131588035
0.722799,-98.0583267211914,26.965354919433594,-3.1364317651197804,12.196156536704018,-90.31451905537891,28.995823007956197,-97.15838558371378,0.26375013520618296,1.3004705974699076
0.725152,-97.51925659179688,27.27541732788086,-3.1370780237084617,10.599855096533767,-84.54633550884394,25.22540319930554,-96.20587487030589,0.26396382010616043,1.3183851290367534
0.727368,-97.1114730834961,27.536666870117188,-3.1376954605509892,5.980785991056319,-77.338136349406,21.684394076949978,-47.48130324797009,0.26402331500080156,1.335344282445795
0.760603,-96.80818176269531,27.741985321044922,-3.1384637216685167,2.6878674820456046,-69.50587646588234,17.355304067780008,-95.11281569713445,0.26411533556046013,1.3525115388098592
0.76441,-96.56228637695312,27.861915588378906,-3.1395880415439845,0.1294860592744406,-60.23521289409984,11.090754452560924,-94.47922108122657,0.264553324753777,1.371858362031954
0.76711,-96.40977478027344,27.867643356323242,-3.140995504614346,-3.6357852541654805,-48.49316831455329,3.2985756131907777,-95.23381407907596,0.2655070846294837,1.3944733877001563
0.769482,-96.40278625488281,27.752178192138672,3.140585125425033,-9.574536126635426,-35.84940557587624,-5.565056281939738,-95.27805865276288,0.2670491034676515,1.420844479938487
0.800188,-96.52507781982422,27.52092170715332,3.1389699579293215,-13.319162579659174,-22.416815752217957,-14.504798042208764,-80.58260600315408,0.26911045717612275,1.4505755373044882
0.802431,-96.67054748535156,27.169757843017578,3.137110398086148,-11.294006368108517,-9.432565522094833,-24.826547472533473,-96.09806690821952,0.27189021195354396,1.4849499603849172
0.804678,-96.77865600585938,26.67231559753418,3.1349468982951634,-9.003892604501077,1.1970034586494285,-36.85131236484707,-81.31608794109118,0.2756563702432614,1.525696796664507
0.807095,-96.91859436035156,26.031959533691406,3.1328965950503687,-8.682948845591348,13.185329291741006,-48.29066003585158,-93.4774011326365,0.28035994484500487,1.5725702280468337
0.840774,-97.13932037353516,25.291166305541992,3.1313594708826566,-8.096589911950447,27.666348884128016,-56.95653767738613,-96.2752973420408,0.2857370285546845,1.623970976268686
0.843942,-97.39264678955078,24.502639770507812,3.1303859254136106,-5.666770178399099,39.846497164964816,-62.53826388976893,-47.26258363181803,0.29161006290828395,1.6788257264231021
0.846666,-97.68350982666016,23.722698211669922,3.1302095882597913,-9.187918391308731,48.75251059733868,-63.71209337033815,-89.71970299643121,0.29765229359438616,1.73511258211952
0.849493,-98.11947631835938,23.03829574584961,3.131275144278719,-17.814349129065516,53.06772166211518,-58.00536103576578,-14.106922685093028,0.3031325263881571,1.7882479454668705
0.880326,-98.67852020263672,22.539859771728516,3.1334351134949503,-26.168418389705227,54.48555623568852,-46.12263504988447,-98.34441789342442,0.3073243008955426,1.8336320198219882
0.882684,-99.24516296386719,22.265893936157227,3.1363033103229667,-28.656728021327158,51.767140946023446,-30.077226368676804,-98.12623242539298,0.3096612419512496,1.8676252088462126
0.884923,-99.7499008178711,22.23048973083496,3.139582994664959,-31.10872153713213,45.844940048799266,-11.485715263958788,-98.73597555505259,0.3097095460959846,1.8873853023949982
0.88724,-100.29667663574219,22.419292449951172,-3.1404125495909563,-38.94930059106487,36.381600255625294,6.781560784443199,-97.62910758388216,0.30740709776198394,1.8923782175475004
0.920524,-100.94750213623047,22.780521392822266,-3.1379133435537274,-50.761166779401876,20.07351445176998,21.28073160454952,-74.24873957287356,0.3031836427536285,1.8923782175475004
0.923192,-101.6368637084961,23.249792098999023,-3.1364342020915066,-63.00650067812998,-4.56165581597479,30.039803762214305,-100.71081848247462,0.2979332436600759,1.8923782175475004
0.925859,-102.2049789428711,23.759641647338867,-3.136344829110695,-69.15046074223156,-39.61555822384293,30.73109062320588,-84.72944170609725,0.29294599086726836,1.8923782175475004
0.928806,-102.49117279052734,24.171239852905273,-3.138469949091625,-69.45911699082443,-75.9614297599199,18.337553572319543,-101.70742405795795,0.2901792218133381,1.8934004343356305
0.96041,-102.42634582519531,24.253862380981445,3.1403388801075374,-54.18515768580219,-97.5644575008348,-7.35789556170346,-101.0351346925435,0.2915067055490429,1.9199737588687946
0.962935,-101.83808135986328,23.8439998626709,3.134664502309253,-14.79545161969678,-98.11979286149186,-40.42566305563605,-99.28729217557462,0.29820098174241133,1.98035104318167
0.96527,-100.92255401611328,23.004499435424805,3.1298538885325224,7.1398870224540545,-86.23461483769852,-67.88178042465836,-99.49637638597804,0.30929637251219616,2.068801959714502
0.967618,-100.42047119140625,22.015789031982422,3.1272399145112475,-3.522892899355748,-70.03666412666237,-82.58658348123802,-99.45648107084796,0.3221723261043683,2.1691376263740905
1.000817,-100.48104858398438,21.0935001373291,3.126569032353077,-19.55332041439264,-59.104946360056964,-86.49959885673833,-98.46084836291591,0.3342632124329653,2.265349589962298
1.003483,-100.67154693603516,20.348257064819336,3.1278051498665493,-25.45133219667122,-53.79030786497834,-79.53211605421916,-98.64511102835601,0.34366738563189014,2.3454401298828493
1.006217,-100.7231674194336,19.913721084594727,3.1312405831765213,-21.41596935011577,-54.09921341547592,-59.7440608210734,-2.084787709652378,0.34926452344534425,2.4022012426341948
1.009097,-100.56295013427734,19.851816177368164,3.135299537962662,-11.439912869158329,-58.83433426514105,-36.2603575676684,-100.00448369727619,0.35149290911406006,2.4381475399469084
1.040481,-100.3100357055664,19.980283737182617,3.137915009338329,-8.887531794253448,-59.65963968293204,-21.13677341496045,-99.17225252476776,0.3518665937723437,2.4625804207225874
1.042777,-100.16292572021484,20.053552627563477,3.1385167062571684,-11.045730699325846,-60.16277190776268,-17.652649523107343,-39.532393652873495,0.35183942862385925,2.48451816718154
1.045127,-100.0926284790039,19.929088592529297,3.137034465065913,-15.308936703761875,-61.38514354276319,-26.14086882168798,-98.36572711876127,0.3526424719541581,2.511670560519661
1.047324,-100.10794830322266,19.51643180847168,3.134181718790482,-21.280369604523507,-56.12095282489428,-42.508143337343334,-99.23440925147888,0.3549227199486131,2.548154961199845
1.080727,-100.25062561035156,18.808568954467773,3.1311375508882127,-24.146875348225507,-37.09617123149744,-60.055647220820205,-77.37118219051807,0.3585699206748645,2.5933714514070156
1.083333,-100.50112915039062,17.884347915649414,3.1288089106046555,-24.961484689776245,-10.959508098790897,-73.6165165348278,-99.92363909293968,0.36300197625092706,2.6437484904549438
1.086128,-100.82743072509766,16.882598876953125,3.127711980789358,-25.993056697859735,9.81735618181855,-80.19360621495655,-99.96249913707807,0.3675031196065033,2.694838095088779
