Time [Sec],Roll Angle [Deg],Pitch Angle [Deg],Phase Angle,Angular Velocity X [deg/s],Angular Velocity Y [deg/s],Angular Velocity Z [deg/s],EKF Roll Angle [Deg],Step Frequency [Hz],Phase Variable
0.0,-86.3250503540039,2.8998422622680664,-3.1235841857737734,-22.005464194359355,-0.18815240834531807,89.08061123087026,-85.4703468851524,0.4,0.025132741228718346
0.003202,-86.77813720703125,4.634027481079102,-3.1243180160215145,-25.3171121492913,-15.842254949629396,85.89840560599382,-85.43917827827735,0.3996812802312488,0.04826290708931151
0.0391,-86.83875274658203,4.477491855621338,-3.125130570226453,-26.66267136861486,-28.081252140355026,81.9143972442604,-85.90077895353022,0.3991421569309512,0.06998821096516072
0.042461,-87.07710266113281,5.179477214813232,-3.1261443771761295,-26.709173004031598,-36.32034370405403,77.07990738745532,-85.06591382805885,0.3984672929705869,0.09082675700409981
0.04565,-87.29058837890625,5.819455623626709,-3.1272664180154566,-26.509014310404375,-43.62685319131055,71.65588341281895,-83.89012418371931,0.3977276676919787,0.11121599272657459
0.048439,-87.47825622558594,6.402126312255859,-3.1283001870020413,-25.47463338702472,-51.49835592671052,66.62755961755809,-21.157413912814846,0.39696806003169,0.1314332034152378
0.079137,-87.63519287109375,6.933875560760498,-3.129390679841932,-24.616240825346907,-58.001495148695554,61.270696893030454,-87.42576187895187,0.39623502939624883,0.15176967491902826
0.081275,-87.76993560791016,7.402186870574951,-3.1306146838117965,-23.268736709657183,-63.06214622929808,55.20874691029323,-87.03479426235779,0.3955788003295133,0.17254264723769552
0.083298,-87.88146209716797,7.805677890777588,-3.1317872946931153,-22.316873009187745,-67.19499807342441,49.37388705708059,-86.5299972557605,0.39502295012021876,0.19390508643028448
0.085474,-87.98640441894531,8.153417587280273,-3.1329705347148074,-21.950551180979744,-69.61421009630791,43.467330708150314,-84.91297047880643,0.3945933778719988,0.21602602835383752
0.119652,-88.09027099609375,8.437725067138672,-3.1342678279758402,-21.41378710467595,-69.59498994398349,36.97052648662047,-87.32865982903606,0.39432981595270833,0.23916305311657687
0.12243,-88.19007873535156,8.650359153747559,-3.135631411430107,-20.87707937743281,-68.03099273726646,30.122032409632087,-85.71789283362722,0.394263591233054,0.26352342398884104
0.1249,-88.27792358398438,8.788139343261719,-3.137110355480165,-18.88317640397684,-63.15658042476267,22.67140251579372,-86.9609538556775,0.39443573849550456,0.2893773691748557
0.127417,-88.34788513183594,8.848663330078125,-3.138597972883723,-16.96116800172442,-55.59384663607688,15.159002098649047,-86.39999659777983,0.39486465476830584,0.3168554579655455
0.159298,-88.42589569091797,8.83405876159668,-3.140144085983271,-16.07885441002593,-47.874469288966026,7.339072414124551,-87.4964280656413,0.3955790521653295,0.3461542271656592
0.16131,-88.51642608642578,8.739521980285645,3.141472233022714,-15.100067811395592,-40.79006730823457,-0.6107270742479495,-87.69401601505812,0.3965992046358106,0.37741899906320125
0.163211,-88.61280059814453,8.572783470153809,3.140038989245761,-14.773813580406179,-34.23519281838128,-7.888176934711264,-87.72487098796697,0.397899355605843,0.4105071514892924
0.166098,-88.73506927490234,8.35119915008545,3.1387955024306646,-15.805809060218207,-28.23470258534312,-14.221159068998352,-87.74910787426171,0.39943192717189385,0.4451373364840931
0.199967,-88.87537384033203,8.083305358886719,3.137690422507999,-16.03993769968249,-26.802821727741645,-19.870978852311595,-87.39862939311611,0.4011627372223571,0.48110938492293137
0.204598,-88.96762084960938,7.7741265296936035,3.1367801267785183,-13.127226580019,-30.62488118161218,-24.53189652683371,-82.15721338176155,0.4030362227727484,0.5180866399693977
0.208837,-88.95636749267578,7.445193767547607,3.136238124698769,-7.057268200479934,-34.69046932279223,-27.291354423221392,-88.23863841267107,0.40492609364995247,0.5552845616293818
0.211381,-88.85149383544922,7.120687484741211,3.1359639771291232,-0.8361454616123198,-35.84174893381665,-28.654856549494575,-87.57219938604315,0.4067434889621348,0.5921458499733726
0.239782,-88.70173645019531,6.802464485168457,3.1358069736017193,4.0775162127918305,-35.9291343740578,-29.40451420713308,-22.64264429538368,0.4084690240182537,0.6285441536213808
0.243209,-88.52920532226562,6.495192050933838,3.1359039240155298,7.910374195740159,-36.57254160896758,-28.855537752593303,-88.29370092164922,0.4100238428543717,0.6639782341892986
0.247359,-88.34175872802734,6.217739582061768,3.1362510700016633,10.443889434383818,-37.70475816201851,-27.037269678549624,-87.49099364232481,0.411328497053244,0.697938176132762
0.250937,-88.15522766113281,5.980337142944336,3.136806151016419,11.675376810605348,-38.23766318144124,-24.176438114500613,-86.23036969095779,0.41232005798275695,0.7300128688873432
0.279329,-87.97872161865234,5.796271324157715,3.1376511755859022,12.33359018808843,-36.46555011071392,-19.86834239929197,-87.1489326497493,0.4128842480145399,0.7594646127072257
0.28140899999999996,-87.8565673828125,5.680505275726318,3.1386995667102395,7.984195734063303,-34.337707127634,-14.563291782260752,-87.03280267575545,0.41294337196972475,0.7857783818806541
0.283515,-87.88444519042969,5.622861385345459,3.1396251909274167,-1.7234939699461693,-31.849585326214243,-9.906989608070273,-31.59102887728235,0.4125942207889157,0.8095305975859841
0.285644,-88.05260467529297,5.592670917510986,3.1402500054808002,-10.025258602417274,-28.63108066099376,-6.773721007936493,-87.61144800289314,0.41203044666461125,0.8319123597504676
0.320243,-88.21936798095703,5.570145606994629,3.140667712541517,-10.94056627667516,-26.05203708889009,-4.6752060033789595,-65.37960545235377,0.41138767662784415,0.8537623529854947
0.324189,-88.29846954345703,5.561902046203613,3.1411549134092334,-9.515871631854186,-25.166433053558944,-2.21458446454838,-87.79582192537775,0.41063306838975716,0.8748692596446981
0.32857,-88.36663818359375,5.583308696746826,-3.1415176073713567,-10.822809546515908,-23.917490275139798,0.37996166261966396,-82.70474390023172,0.4097572524072431,0.8951671821510587
0.331845,-88.4805908203125,5.635313510894775,-3.140978108570676,-12.30764742207343,-20.388772078195675,3.1154759573458954,-87.5023189611113,0.40874647765962147,0.9145621045862891
0.359572,-88.607666015625,5.720330238342285,-3.140405950478084,-12.78682702725849,-15.694309637112333,6.024710937608671,-86.61535073201713,0.40757978004589857,0.9329138259097474
0.362187,-88.72271728515625,5.825440406799316,-3.140088209227856,-11.921202149023278,-9.9132127641778,7.647754275926815,-42.02786322095203,0.4064202927424902,0.9512375451759896
0.365739,-88.842529296875,5.932848930358887,-3.13983545093703,-12.868932731271213,-2.3414535208340745,8.9447013313801,-88.50694024835795,0.4053073049465382,0.9697805767283861
0.368857,-88.99235534667969,6.0568389892578125,-3.1394867212333564,-13.16980597930486,4.425526303835028,10.737925663058283,-87.92045218710695,0.4041707580355872,0.9881056509099048
0.399965,-89.1408462524414,6.213364124298096,-3.138964119930156,-13.130596424600755,10.27050849739763,13.424988676885706,-83.72738822494317,0.402885073151014,1.0054222522182998
0.40459,-89.32087707519531,6.414379119873047,-3.13828063387369,-16.133542027162928,15.275811993834605,16.950016010357082,-80.30220089551509,0.4013302363218966,1.020966940019572
0.40927,-89.60468292236328,6.657440185546875,-3.1376209369605434,-23.422526956556485,15.795486936835026,20.390781861358953,-50.58128884685615,0.3995120453549915,1.0347592316925136
0.412759,-89.98458099365234,6.918702602386475,-3.1372381409589116,-29.152517792800044,15.759635273881628,22.45086253768318,-89.53380220548902,0.39761572001421197,1.0479463503078525
0.43953,-90.38078308105469,7.171601295471191,-3.137136909789306,-32.09667424962863,17.602541547808837,23.073943129623007,-86.60357080316838,0.3958331377533194,1.0617289881363428
0.441706,-90.75731658935547,7.390766620635986,-3.1375128583577054,-32.45523869048679,18.834215900458897,21.215098609267574,-90.01755806694138,0.3944977300790639,1.0782093038106306
0.443707,-91.08504486083984,7.548892498016357,-3.138207268004566,-30.118101635764745,19.302548311468332,17.667679354375956,-83.68421329226663,0.39382356949592673,1.0987604513534681
0.446469,-91.35829162597656,7.6482391357421875,-3.139016792742242,-27.63308757041735,17.78866932533356,13.483230553712051,-90.11437919256592,0.3938670436528454,1.1237782721922394
0.47894,-91.62660217285156,7.696847915649414,-3.1398790513689474,-27.850929623805733,15.489473971450945,8.996107896394555,-90.76801789753685,0.3946260673678859,1.1532947550630008
0.482715,-91.95255279541016,7.693141937255859,-3.140834634883527,-31.46344058148757,12.377685889370033,3.993617157235156,-89.52164517671218,0.39611528477246144,1.1874468710617854
0.486245,-92.35054016113281,7.62337589263916,3.1411934622279856,-35.52326404300813,11.704757723093804,-2.1122398428078513,-74.48919177534223,0.3984182386906718,1.2268054146561123
0.489638,-92.75851440429688,7.4730143547058105,3.139857139445357,-36.566083665107335,6.152187026956851,-9.22369662972855,-90.8711425288824,0.40158214401635245,1.2717181743462722
0.5191,-93.15771484375,7.254477024078369,3.1386555695195066,-40.52260393052604,-2.2686953575873368,-15.676860211330244,-91.97423483145238,0.4053815156590075,1.3208224806970095
0.522787,-93.6640625,6.9864959716796875,3.1374886236486126,-49.81684531532342,-10.982646218377962,-22.024627997623117,-91.86861319158515,0.40968119763124344,1.373309051120416
0.526587,-94.27410888671875,6.67460298538208,3.1366313581388767,-54.930245946885954,-11.42504183978792,-26.79869970857754,-92.86581712075615,0.41414179721257705,1.4270768536869067
0.530191,-94.94894409179688,6.341747760772705,3.136268627871538,-62.79979866327789,3.7208010456514526,-28.963898703775556,-92.66387782299515,0.4183236856377624,1.4793737301496461
0.558652,-95.4842529296875,6.009708881378174,3.1361349464435517,-43.70441340443063,9.219243346389701,-29.85856469258802,-94.6019475465269,0.42208299480320055,1.5292782186155167
0.560777,-95.43221282958984,5.730050086975098,3.136568825657476,-14.09938448005984,-0.8442335795283785,-27.469834096422996,-85.22965022981882,0.4250045218270888,1.5741549710001184
0.5628029999999999,-95.14939880371094,5.613622188568115,3.138411200107937,-4.940494819610486,-19.557712226028958,-17.344257944344804,-94.04327184500806,0.42601307403814587,1.6071957131044439
0.564781,-95.13832092285156,5.756990909576416,3.1413649772882333,-14.09361040889024,-36.40323146472672,-1.2410690644100004,-94.22028573621445,0.42437567939848686,1.6236748500371123
0.599288,-95.33351135253906,6.109803199768066,-3.1392281080672184,-17.193583971254323,-44.89235064073051,12.915663178025149,-94.17500685908568,0.4206165801941964,1.6267200434836935
0.602873,-95.41697692871094,6.504046440124512,-3.138026159709417,-11.69283306657661,-46.809332023753804,19.498069306649114,-90.43326850623758,0.41607887971818447,1.6267200434836935
0.606246,-95.33917999267578,6.802120685577393,-3.1382334798495046,-3.483855593484775,-44.487101856895315,18.349665205265268,-93.1333213908984,0.4120413067297021,1.6274942312425262
0.608472,-95.2525863647461,6.935917377471924,-3.1395441376720146,-3.6558211872088897,-32.81953366005858,11.179937086327426,-94.28175475481473,0.40942678433345775,1.6369560213811034
0.639501,-95.31985473632812,6.8678998947143555,3.141548092281929,-7.081456461651888,-10.993810162576347,-0.24336825790529618,-94.1354532566588,0.40882447519890097,1.6588966450333742
0.643753,-95.47401428222656,6.56169319152832,3.1386457927287235,-8.071262716734394,18.560168220390473,-16.120136073369487,-93.89252194214916,0.410824715109549,1.697151722408643
0.647033,-95.6346664428711,6.006872177124023,3.135624768234017,-7.44017970440825,49.462051138887105,-32.70119380249894,-18.225230623415406,0.41540357256934207,1.7517344104617105
0.650484,-95.85397338867188,5.254021644592285,3.132798255261963,-12.766006903121,80.82548067545277,-48.30032816862173,-95.46849491261423,0.42229484418102625,1.8211341232372045
0.678742,-96.18029022216797,4.377608776092529,3.1309451651318296,-17.24592200331684,102.54113823578119,-58.677595084067605,-95.38522560079986,0.43060037034932225,1.8998528508287964
0.680895,-96.47863006591797,3.513408899307251,3.1303185042843356,-17.492768455015685,108.38062212706193,-62.32408964796484,-23.52865683073038,0.4392366488981456,1.9811716085179234
0.683011,-96.69046020507812,2.7547903060913086,3.1306076806818215,-16.21517474057563,98.65132501289142,-60.858706712484455,-96.39979810469802,0.44740038998447956,2.0600639591505114
0.685062,-96.83268737792969,2.1182491779327393,3.1312151895306917,-13.55424915315455,78.42247669146971,-57.57731991067025,-93.62825314760892,0.4547895030749125,2.1346021215211772
0.719817,-96.89918518066406,1.565129280090332,3.131679586993994,-9.229961620744744,54.354836660258236,-55.03829953955556,-96.02383750490822,0.46146349744984416,2.205111332153745
0.724431,-96.89825439453125,1.060795783996582,3.132093555647032,-5.100296913639866,30.676035883400992,-52.739257864929264,-94.8558160189485,0.46741115613946493,2.2714761805142545
0.728777,-96.86024475097656,0.6057961583137512,3.1325594554477276,-1.4775453679580628,8.979967305612169,-50.13275180972027,-48.47728057217577,0.472581852054065,2.3333329301994366
0.731621,-96.79959106445312,0.19785048067569733,3.1329537329491166,1.3828935669353781,-11.312451293962136,-47.914442971083524,-96.08772244437255,0.4770519950623903,2.3911128605629957
0.759169,-96.7435073852539,-0.1890600025653839,3.1331080400676123,2.001626423303376,-26.485499676639314,-47.03129609630629,-95.89431038380344,0.48101898683219785,2.44601226582612
0.762087,-96.72480010986328,-0.5894045233726501,3.1330629655421225,0.9957924890031996,-33.546402391531345,-47.27201928341422,-90.67517383180648,0.48463880616495264,2.4989795757777142
0.764942,-96.74907684326172,-1.0130791664123535,3.1330216627292833,-1.241029150492038,-33.187773063876065,-47.512855168643455,-95.78063648552609,0.48793909465279695,2.5501666541758383
0.767779,-96.80403137207031,-1.453290581703186,3.1329879318153915,-2.856502931662515,-28.150312183053025,-47.72694403308292,-94.13465911965267,0.49094956940079604,2.599740142383311
0.799607,-96.86125183105469,-1.906671404838562,3.1330281037717462,-3.727887793802164,-19.956002754647205,-47.53219484927835,-96.01137208472511,0.49366800508512326,2.647667848743841
0.8037,-96.92391967773438,-2.3629367351531982,3.1332092447311215,-5.302974239523532,-9.434226965610438,-46.5569394584489,-94.33780500517872,0.4960695387707942,2.6937752054741004
0.807139,-96.99835205078125,-2.810838460922241,3.1334509403397264,-6.1366214527252145,-1.72934466730052,-45.249354383363325,-89.90766981059174,0.49817175087861504,2.7381527620759756
0.810967,-97.06266021728516,-3.2518997192382812,3.1336376899027463,-6.189768435317553,5.981351616096961,-44.24071985806003,-85.74238296093559,0.5000299816365417,2.7811294245272538
0.838878,-97.10968780517578,-3.69315242767334,3.133860870250137,-5.739145424165493,13.25921230176668,-43.02030848735132,-96.50356520823227,0.5016548151318757,2.82275636480943
0.840944,-97.1514663696289,-4.131806373596191,3.133998853579388,-6.2131204252030034,19.059024746800695,-42.27070547122618,-96.23852457035954,0.5030888732505254,2.8632867193472964
0.843066,-97.19318389892578,-4.580758571624756,3.1339631933985634,-5.649182441286316,23.06304044016037,-42.48745127925278,-96.24317941889255,0.5043808746813796,2.9030146099206267
0.8450530000000002,-97.19984436035156,-5.040022373199463,3.13396466844599,-3.429663165062601,25.371024539957503,-42.48214763736226,-96.19630402832206,0.5055115326085886,2.941809928206517
0.879446,-97.16293334960938,-5.499782562255859,3.1339111953690413,-0.9493996030046516,27.12115806193572,-42.763718770801454,-93.33426658403825,0.5064829126389421,2.979675515283882
0.88309,-97.10406494140625,-5.960147857666016,3.133897712498735,0.9808288251921711,25.72610729188625,-42.81282783093385,-95.82916424454162,0.5072797108832723,3.0165052062557494
0.886803,-97.04676818847656,-6.397648334503174,3.1340851090050994,1.9857443124923921,21.033915888701937,-41.74551173537639,-96.15555815881768,0.5078768251571003,3.052130310148294
0.889834,-96.99444580078125,-6.813665866851807,3.1340991054023206,3.112899055038097,16.886693326561897,-41.64521723760392,-60.69139767730685,0.5083026685867584,3.0867168053855223
0.919444,-96.9251480102539,-7.2292022705078125,3.134196005725031,5.056347207651773,12.980582418538827,-41.07730749868487,-96.5176432160561,0.5085574906384486,3.120255498145292
0.923783,-96.85735321044922,-7.632692813873291,3.1342354558666576,4.554091808355825,8.924312362933966,-40.829634594096454,-95.31747723843964,0.5086547184635919,3.1528200081180375
0.927392,-96.83480072021484,-8.031933784484863,3.1342671257341705,3.1025239976888472,4.610526673259878,-40.644406693994874,-95.7484450114531,0.5086046649672341,3.1844652312599293
0.930752,-96.84004974365234,-8.421956062316895,3.134330062449598,2.044674757764439,-0.23369969824832,-40.29738527283404,-95.02424699010214,0.5084196492793291,3.2152593169889387
0.959007,-96.86138153076172,-8.803062438964844,3.134328234458351,1.0173482458586425,-5.720871679927947,-40.316407349672524,-95.78425074899096,0.5081088676730962,3.245251567269247
0.961151,-96.90410614013672,-9.186182022094727,3.134245766643415,-0.23937734635674598,-10.047657354026684,-40.79209245932348,-95.92161873290462,0.5076753384077463,3.27445304427708
0.963297,-96.96949768066406,-9.57730484008789,3.1341373288951537,-1.7686393859258378,-13.12230030608013,-41.42212618383838,-92.82386723175738,0.5071230712924163,3.3028812299234103
0.965482,-97.03326416015625,-9.972519874572754,3.134091430140051,-1.1767804424557842,-14.11312596689626,-41.70455792111299,-96.21046259886937,0.5064674258101947,3.3306251701675595
0.999704,-97.06671905517578,-10.371228218078613,3.133970856431742,-0.130563695038782,-15.808493324562022,-42.38954734768981,-60.012292739153686,0.5057048161453749,3.357655839210607
1.003248,-97.09984588623047,-10.777607917785645,3.133841808497033,0.1310439293745853,-17.74153077477672,-43.12200317390364,-96.73260473346922,0.5048391582908306,3.383991121203636
1.00662,-97.14042663574219,-11.18929672241211,3.1337002871979434,0.8127628425973101,-19.69940962300275,-43.927743514817124,-95.68010874839122,0.5038724104597938,3.409636845254536
1.008837,-97.18135070800781,-11.609821319580078,3.1335090047329035,0.9769229174822758,-21.51496952704052,-45.01139400777466,-96.26052006198431,0.5027966615105512,3.434536952523383
1.039812,-97.22966766357422,-12.042648315429688,3.133345683099492,0.9090262480990005,-21.05993378679781,-45.943673848346386,-96.18960503709653,0.5016211671069551,3.458742749319056
1.04366,-97.27075958251953,-12.486532211303711,3.1332065433792966,1.2909846204729825,-19.32417952056976,-46.73859858470915,-95.98804592149042,0.5003549904918076,3.482304914483834
1.047114,-97.29553985595703,-12.939491271972656,3.133101678348656,1.8729614541527912,-16.834741200187487,-47.33513023134514,-84.9665724748446,0.49901058916070207,3.5052960230396004
1.050763,-97.31297302246094,-13.39772891998291,3.133045427864002,1.8286288306843541,-14.235119975661858,-47.657265858265035,-96.6619199472171,0.497604960108362,3.527817955250008
1.079153,-97.32571411132812,-13.854676246643066,3.133078820998828,2.4158347077823366,-11.63174043954543,-47.477280128351445,-86.11725803133349,0.49616904599063577,3.550061282504464
1.081266,-97.31842803955078,-14.306005477905273,3.133134313083832,3.3775065598999143,-9.590787707991824,-47.16428329454102,-95.76395218531124,0.4947111415279923,3.5720762192019673
1.083391,-97.30014038085938,-14.75018310546875,3.1332422820765844,4.095489428705896,-8.742219519661427,-46.55346289216137,-96.4132356209691,0.4932498615841095,3.593978344286354
