Time [Sec],Roll Angle [Deg],Pitch Angle [Deg],Phase Angle,Angular Velocity X [deg/s],Angular Velocity Y [deg/s],Angular Velocity Z [deg/s],EKF Roll Angle [Deg],Step Frequency [Hz],Phase Variable
0.0,-101.40234375,6.493862628936768,-3.122468336991512,4.582010206588252,-16.669689678894127,111.12441839968277,-100.39836014851487,0.4,0.025132741228718346
0.003423,-101.24291229248047,8.679414749145508,-3.123856741524203,10.874578111556374,-28.23076156619202,102.89311837427945,-100.23143350367368,0.3996194548468913,0.04787444674270555
0.039396,-100.93282318115234,8.450780868530273,-3.1252067466375717,17.036465714681935,-40.13041788347849,94.76858786598179,-99.88157275993969,0.39900657179273097,0.06913241981335685
0.042206,-100.58612060546875,9.34786605834961,-3.126445374977859,21.271538169926682,-52.117888235376526,87.30287008426686,-99.5241820329603,0.39826370183403437,0.08953515249729083
0.044999,-100.1954345703125,10.204691886901855,-3.1275549001326923,24.45745258752245,-64.36342020959057,80.59288541345715,-99.15884839126862,0.39746045092528887,0.10951182458694819
0.048754,-99.7635498046875,11.022639274597168,-3.128632822328803,26.02612335117906,-76.87651118416152,74.08293649286962,-98.7120774473305,0.39665293500948146,0.12941122910382102
0.07932,-99.31122589111328,11.794079780578613,-3.129709906357582,25.750830869134404,-89.21760433505321,67.61737014150883,-98.28572535393018,0.3958869754448601,0.14952100215451078
0.081808,-98.86488342285156,12.512042045593262,-3.1308154170057456,23.045531250223046,-100.56685156562149,61.050457443243396,-93.67535109350872,0.3952026649751831,0.17009566494007608
0.084216,-98.44695281982422,13.167490005493164,-3.1319768193523023,19.0175928192954,-110.199849842684,54.24069736903815,-89.25805964016605,0.3946377836074361,0.19137772640925174
0.086591,-98.04818725585938,13.736193656921387,-3.1334109221718713,15.832982967831104,-115.66328400883134,45.963925359235475,-94.24717139915118,0.39426337581847887,0.21382107612698323
0.119426,-97.666259765625,14.181346893310547,-3.1350720276621256,12.862072660023582,-115.10080427030246,36.48905620674252,-96.58610880225461,0.3941476997244464,0.23786656029358338
0.122343,-97.38349914550781,14.48757553100586,-3.1368897012827865,4.961110038072877,-107.18392517315151,26.241084772284992,-92.27764106323413,0.39434880809087325,0.26389519178433996
0.125132,-97.2843246459961,14.643594741821289,-3.138943098373824,-3.9851622368163264,-93.56486264741541,14.768605561164044,-96.4764453914336,0.3949471180552983,0.29243215053095817
0.128037,-97.29068756103516,14.617984771728516,-3.1414718486768027,-8.156161114344007,-76.3017166145591,0.6734083605913912,-96.19464011740457,0.39609651565623427,0.32446928794204627
0.159456,-97.37102508544922,14.361881256103516,3.1386335942522448,-14.111037636557528,-54.03322012771526,-16.508488676745365,-90.50485313225528,0.39800208898777023,0.36132983637446936
0.162031,-97.63711547851562,13.843620300292969,3.135127418644823,-23.967796325924233,-29.666475867465163,-36.168286617656626,-81.052710326681,0.4008781581835208,0.4044079208651885
0.16446,-98.04583740234375,13.050220489501953,3.1311548223082446,-29.858988164316557,-10.20128709148049,-58.63782289253062,-3.7432582564249817,0.40501251379450925,0.45557276082948545
0.166667,-98.41105651855469,11.987314224243164,3.127005749498686,-29.48409615624748,-0.6720971777141602,-82.25464994795375,-97.34891417133046,0.41066441273923904,0.5165323759956509
0.199443,-98.64312744140625,10.706398963928223,3.1231815397356533,-24.949149368135203,1.9043378490959488,-104.06833438325019,-97.31143612393248,0.4179666127082054,0.5882162575937946
0.202484,-98.67904663085938,9.295258522033691,3.1204156954400752,-10.85682901122445,3.6295552678687826,-119.75015501946515,-97.14332157280538,0.42677104208333366,0.6697977356802988
0.206014,-98.41096496582031,7.855638027191162,3.118869283502683,10.890057027762916,7.979355691262702,-128.14852830215617,-97.42649386498857,0.4368523068094357,0.7599550054966085
0.208925,-97.90660858154297,6.462449073791504,3.118591323847721,28.90170983138259,16.475929164971912,-129.0518344802687,-95.06055701148776,0.4479623967826073,0.857209999533009
0.240071,-97.46452331542969,5.260893821716309,3.1209807351260355,28.552236372309718,28.099833669992044,-115.11955996976332,-93.44281596669799,0.45886313357958763,0.953847656309562
0.243954,-97.38526153564453,4.467007637023926,3.1259660759604193,12.027879458575121,38.27824475039487,-87.19972056742132,-96.47753780488951,0.46781391132116,1.0389182724923758
0.246325,-97.63616180419922,4.121753692626953,3.131634040918543,-4.67290209519455,40.77685430728518,-55.7117152105838,-96.54002934529481,0.4738160508238973,1.10602444216869
0.248633,-98.04312896728516,4.12082052230835,3.1370402127910824,-20.73086722541764,39.59044361826479,-25.57331937524765,-97.11266477360236,0.4764149514692863,1.152124557007044
0.279705,-98.6437759399414,4.383849620819092,-3.1411886656489494,-40.675224507529975,40.08374037069063,2.2832882701924806,-84.33924329162353,0.4754760297026343,1.1761591717901498
0.282505,-99.44072723388672,4.814031600952148,-3.1377393474703803,-55.95077524662883,38.31448231903637,21.95445121899582,-98.37882572395007,0.4719907445442825,1.1841355193293
0.285193,-100.23072052001953,5.263672351837158,-3.1363032625369103,-60.77703814057861,27.462486520423354,30.376183748648263,-99.34367128645009,0.4675844909096823,1.186106264345127
0.28798,-100.8736801147461,5.658139228820801,-3.136183897676382,-59.07205216901418,8.807570769640108,31.260945963164204,-99.59704485349924,0.46337372126827964,1.1890284184338358
0.319583,-101.44403076171875,5.999692440032959,-3.1368973742257458,-61.651363826042775,-14.998779521098887,27.290642376000417,-100.28237547964804,0.46006989107382007,1.197384470670651
0.32206,-102.10175323486328,6.273850917816162,-3.1383852369835945,-69.63545881481582,-40.01374800717092,18.763450018015686,-100.98928358304622,0.45833412735944234,1.2153853894024444
0.324361,-102.782958984375,6.419790267944336,-3.1407136329039136,-69.25979158027594,-58.126576402965995,5.176580308271977,-101.70827406278937,0.4588967788945438,1.2477186158088944
0.326637,-103.20116424560547,6.3514790534973145,3.1394736103586127,-51.86618893427239,-64.60156158519223,-12.52990263143929,-101.08977080258742,0.4623200143921601,1.2980607737771552
0.360137,-103.14710235595703,6.053692817687988,3.1364028424025316,-21.179260606692516,-69.8858262290318,-30.671507467981275,-29.42599633720147,0.4685086760071284,1.3659937047238695
0.363711,-102.81901550292969,5.647497177124023,3.1342120196288494,-8.011217669967166,-83.06485381748983,-43.48081008647734,-102.5625271588671,0.4762981565360935,1.4443737226277655
0.366661,-102.69982147216797,5.278661251068115,3.133179313957889,-12.830443761524545,-95.06756573652075,-49.50749921762437,-101.72978764428092,0.4842227201667357,1.5240919201874692
0.369396,-102.959228515625,5.012587547302246,3.1338181284359403,-31.8362937780894,-93.53390823009691,-45.86385284261103,-101.98401045632755,0.490560123069116,1.594335607796924
0.400875,-103.60708618164062,4.887906551361084,3.135258335851054,-54.13194026688404,-86.07817618494855,-37.60258877731887,-93.7173164057,0.49476051805118904,1.651550269408197
0.404006,-104.16740417480469,4.843888759613037,3.1360476397416277,-41.16851784486122,-83.82792938175282,-33.09493713267725,-103.41161077077423,0.49775674060499286,1.701462811111215
0.40618,-104.11383056640625,4.822308540344238,3.1365406202071564,-16.237936345984696,-94.55929720943425,-30.137065655995286,-102.17827770707108,0.500031581341859,1.7470310353964544
0.408506,-103.8048324584961,4.864334583282471,3.137692673807266,-3.3394231326352157,-89.71669308789521,-23.19555464779508,-102.84634578445251,0.5011329686825606,1.7853691670031941
0.43975,-103.62508392333984,4.922020435333252,3.138517729301568,-1.6461733470555688,-75.3201637893149,-18.256743896701828,-67.70293030231812,0.5015394340426274,1.8194101772391387
0.442446,-103.65453338623047,4.853451728820801,3.1377133379847235,-9.135509496033578,-58.447226463741416,-23.03924406109205,-102.06638607774539,0.5028500422519292,1.8591576235127707
0.445049,-103.9356689453125,4.493076324462891,3.135115322280717,-23.482224517449687,-40.180558302175555,-38.57353431878203,-102.8325905136407,0.5067143041201018,1.9150324968778867
0.449787,-104.39024353027344,3.7079944610595703,3.130712765998965,-32.169484066180964,-14.654232335964887,-65.07648512875073,-101.73673764194706,0.514697050539667,1.9970273705980905
0.479907,-104.79621887207031,2.468228816986084,3.1265595782202107,-30.763759418006053,19.410535309793524,-90.27111320320348,-103.36191133889656,0.5263261989669993,2.1024348345877106
0.483584,-105.0829086303711,1.0621109008789062,3.124934398611066,-28.19158530866012,41.969593166571585,-100.30541924495009,-103.62744742969214,0.5389410918125312,2.2147665943677333
0.487038,-105.45175170898438,-0.172092005610466,3.1256210214281164,-38.704298290441926,56.215820737371175,-96.50785455699051,-104.47001685178414,0.5501782536717933,2.319234432151365
0.489464,-105.99496459960938,-1.14589524269104,3.127864356622734,-44.0787146011365,62.124661784578805,-83.3780658022591,0.6265674949444947,0.5587208182744684,2.4074776677465293
0.520015,-106.39981079101562,-1.8335798978805542,3.1307458613702015,-36.04993651481323,57.71804229814002,-66.12745999671893,-101.3844356394004,0.5644000495473772,2.4782667945985204
0.523203,-106.55181121826172,-2.2797141075134277,3.133182811327277,-24.248812506493362,46.214033226263,-51.34303742498443,-105.10707695255006,0.5679522569692194,2.5360482730663683
0.525573,-106.58216857910156,-2.612964630126953,3.1344531063808083,-15.436034571384765,31.311875268710406,-43.599873944089,-105.46311453329234,0.5704143141646236,2.5872033274236528
0.527975,-106.60603332519531,-2.960214614868164,3.134534617695862,-11.136891526630713,17.571858630509848,-43.11173398448653,-103.83369053178693,0.5725933805265921,2.6367349935501836
0.5601,-106.68380737304688,-3.393418312072754,3.133900115440407,-11.453835356007755,9.190142471657216,-47.02181237864373,-102.23297639323556,0.5748657999831548,2.686990129246537
0.5628179999999999,-106.84249877929688,-3.9288878440856934,3.1329536757739755,-14.623595522442795,5.500233517848086,-52.885891781125686,-102.94684768809579,0.5773170323384446,2.7385115598463194
0.566832,-107.07623291015625,-4.557555675506592,3.131937082332828,-19.165842075230525,5.857141210945694,-59.23892735081593,-105.26987441404782,0.5798863347633938,2.790928862044195
0.569453,-107.34254455566406,-5.272911071777344,3.130983278821588,-21.28722882199749,10.435620636619872,-65.25301819803887,-106.19822737321965,0.5824518633099328,2.843483886297155
0.599882,-107.5696029663086,-6.068442344665527,3.1302218132461803,-20.581943488301977,18.828587824582804,-70.0847418282301,-102.70764655048688,0.5848601775463806,2.8952123008195585
0.602561,-107.7605209350586,-6.916313171386719,3.1298915603407695,-21.17598211589091,29.220078608975225,-72.24845696483092,-101.33207985210016,0.5869338656503184,2.9449895161890316
0.604979,-107.95328521728516,-7.776340484619141,3.129938748980753,-21.81277431258954,39.86420101529349,-72.08578234936873,-90.60293099127976,0.5885813215952374,2.992218929585775
0.607308,-108.12630462646484,-8.617362976074219,3.1302746796770404,-21.234877129556637,46.39075071065874,-70.11988998169898,-106.25654062879934,0.5897835872540474,3.0367546426278125
0.640309,-108.26876831054688,-9.410243034362793,3.130584041984867,-19.386556223164902,45.79084153547818,-68.29295781269313,-106.17933990017238,0.5905944763040897,3.0789068044912935
0.643954,-108.38815307617188,-10.152957916259766,3.1307592825785657,-16.723598654465746,39.316372032534275,-67.27985634367265,-105.73695367210031,0.5910669465381727,3.118983567884316
0.647478,-108.48234558105469,-10.849987983703613,3.1308884908977603,-12.765094219093156,30.415955940185246,-66.53512666752032,-106.97684137174768,0.5912333134508665,3.157166713566236
0.650963,-108.53988647460938,-11.506903648376465,3.1309680283452783,-8.232050492438372,20.85428532862519,-66.07572814394526,-106.74881792893733,0.5911212004620182,3.1936105715638567
0.679888,-108.58592224121094,-12.132498741149902,3.130995341711334,-5.537415787029166,11.374261090856166,-65.93380364318156,-107.57619457078425,0.590753812851156,3.2284434475403008
0.682275,-108.68175506591797,-12.750189781188965,3.1308322427161577,-6.9989349698734395,4.8761318126273405,-67.00772794676101,-107.2431035819007,0.5901376860242649,3.2616903652848857
0.684482,-108.84860229492188,-13.396137237548828,3.1305638865231615,-9.385270730960727,2.2321090224113407,-68.78441724423223,-107.66037486681195,0.589272745736451,3.293335229557312
0.686802,-109.03240203857422,-14.082634925842285,3.1303109699524785,-10.870251186717171,4.277359437056765,-70.48075619630742,-107.02457762879558,0.5881711015211438,3.323438493389281
0.720494,-109.18917846679688,-14.815023422241211,3.1301833003426385,-11.477869937923382,11.551561702652297,-71.38091365721257,-102.44612723883164,0.5868685276916236,3.352210060873975
0.723823,-109.29019927978516,-15.595434188842773,3.1301029393553463,-10.444395722156045,21.72978580662659,-71.95023041510065,-67.85722933498727,0.5853937042128282,3.379817508765706
0.727006,-109.3317642211914,-16.412830352783203,3.130150650176161,-9.685305573273753,31.790401737056083,-71.67868258426846,-108.75324602656998,0.5837958111941783,3.4065590220407356
0.729919,-109.35595703125,-17.236738204956055,3.1303871386750193,-10.591045006278097,40.480307984090736,-70.21260296949272,-107.71599418929668,0.5821427243714669,3.4328533438376647
0.759972,-109.3769302368164,-18.04460334777832,3.1307997658052273,-11.16762993921671,47.75414867654708,-67.63988927520236,-108.27488770830533,0.5805028921784202,3.459127080420597
0.762497,-109.37010955810547,-18.82085609436035,3.1313274838420546,-10.694569329754334,52.31484015518843,-64.32838816933757,-86.76871242630419,0.5789291206535857,3.485712854728006
0.76479,-109.34233856201172,-19.548080444335938,3.131991449712374,-10.623682211453357,54.429866288290825,-60.15199386925241,-107.95996070273908,0.5774809378159382,3.5129888430482805
0.767183,-109.3283462524414,-20.20726776123047,3.1328213376745153,-11.83962834599217,53.856321643306515,-54.945395306465045,-104.51828217676574,0.5762281889007199,3.5414017869072096
0.800119,-109.35249328613281,-20.78604507446289,3.1337481172820847,-14.027658102264597,51.895302615609566,-49.150451078761954,-107.83870951731255,0.5752153521762752,3.571243430982443
0.802908,-109.4067611694336,-21.28969955444336,3.1347112493849427,-15.910995680983696,49.57928109070662,-43.13707740140186,-108.38244176603787,0.5744623558432119,3.6026540619787606
0.805696,-109.46998596191406,-21.734386444091797,3.1355381961999496,-17.262982108316237,47.690166879496985,-37.975038992759664,-105.46850155125013,0.5739117134534927,3.6352888081437853
0.808614,-109.51407623291016,-22.142841339111328,3.1361958077971037,-16.05846629535344,45.918316771052716,-33.86388665962646,-34.73710832105032,0.5734836920623139,3.6686594068834646
0.83911,-109.50270080566406,-22.516693115234375,3.1367599787185076,-12.562044647899723,42.923152461502475,-30.320644065412303,-109.16747895127001,0.5731306109805571,3.7024739760970578
0.8416,-109.45690155029297,-22.836950302124023,3.1374575333441124,-10.30509999044916,39.367314998458816,-25.933217410541253,-108.1543404955576,0.5729224450524586,3.7371768893362525
0.84388,-109.42433166503906,-23.08177375793457,3.1383494103124256,-9.82838693732812,35.91582575046003,-20.333754904431224,-108.36926303231434,0.5729672876687403,3.7734564226930796
0.846147,-109.41415405273438,-23.243637084960938,3.1393371320412906,-9.956747536173815,32.20317738935663,-14.139819199946317,-18.38972411109298,0.5733226978609673,3.81169012722465
0.879771,-109.41504669189453,-23.336782455444336,3.140135920774204,-9.495190672821034,27.99902007784266,-9.132294184481793,-108.43087847858988,0.5738779346145508,3.851201710151498
0.883468,-109.42121887207031,-23.382429122924805,3.1408737365294397,-9.421316200531821,24.266393413416974,-4.50716072479502,-107.22657064421448,0.5746100973687345,3.8918598384798955
0.886174,-109.42999267578125,-23.387292861938477,3.1414769356420265,-8.830864276030791,21.459499853243553,-0.7255372714714275,-108.37188190490843,0.5754553359318931,3.9332744462124385
0.889124,-109.41190338134766,-23.367155075073242,-3.1412613072050553,-6.2573958458371415,18.894203744391824,2.077157643353139,-94.87845237049993,0.5763436539494323,3.975012838044997
0.920135,-109.35289001464844,-23.344680786132812,-3.141342227615815,-2.0507009056030943,14.090374606770947,1.5690337241779737,-107.16970830318441,0.5769388689404275,4.014965423914844
0.922631,-109.26539611816406,-23.348764419555664,3.14145828585012,3.2148530753354656,8.392051942614152,-0.8412019893930979,-98.63557023586104,0.5770770199984264,4.052083590857308
0.924974,-109.16231536865234,-23.379375457763672,3.140959319979602,6.881149211410216,3.286783718475574,-3.9612108978312075,-108.32976149684093,0.5767405736079974,4.086228454371961
0.927274,-109.08841705322266,-23.42851448059082,3.140615458546483,6.90469287347925,0.40980075807146626,-6.107769879897434,-106.04133269338215,0.5761213486585433,4.118575428249193
0.959328,-109.05624389648438,-23.473072052001953,3.1405890759589923,5.7450543915712,-0.5767027537017954,-6.270819301990333,-99.47778654152147,0.5755343379902476,4.1510859033734375
0.962113,-109.0188217163086,-23.47884750366211,3.1410180226098894,5.9767890497313925,-0.4946124709755575,-3.5893284418651694,-107.99930890525353,0.5754034195367864,4.186425207432588
0.964835,-108.921875,-23.40871810913086,-3.141269372509225,8.673114226960177,0.011344519825858032,2.01752091383223,-107.60272575236279,0.576166574967821,4.227373917537303
0.967764,-108.73556518554688,-23.237136840820312,-3.1399538144485772,12.953233487328449,1.1246229835194512,10.210122794945548,-101.52866034912155,0.5782331670456491,4.276560312099905
0.999197,-108.42892456054688,-22.945762634277344,-3.1382279957934442,20.68214577852065,2.857082217081497,20.90308190760305,-68.215263756078,0.5820342071640522,4.336774412916906
1.001686,-107.95262908935547,-22.512426376342773,-3.135998450101107,30.449543395428783,6.672802828515439,34.60179639189254,-92.88974425821765,0.5881154517291651,4.411554287205081
1.004007,-107.2777099609375,-21.91319465637207,-3.133311246900501,43.52402469335601,11.569671095462938,50.903326921691935,-100.9769657471242,0.5969865016276368,4.504245121238714
1.006366,-106.43822479248047,-21.126548767089844,-3.130459573184889,54.449718233113465,12.393296286718096,67.89746253899271,-105.38725740655023,0.6087981853432591,4.615969886969878
1.039325,-105.59422302246094,-20.114011764526367,-3.127076424135987,58.775929317548275,9.05133424470234,87.83085736748718,-80.8295027104545,0.6238140956185015,4.748569551917072
1.042111,-104.79700469970703,-18.848194122314453,-3.123506086551508,62.25908673763383,6.206492153500329,108.61129810590077,-104.275463493533,0.641591611486454,4.899464374016759
1.044786,-104.03224182128906,-17.376502990722656,-3.120027407227585,59.54311665569162,5.97700590823754,128.561918671482,-98.92596534222211,0.6612191462631029,5.063100202006569
1.047784,-103.38340759277344,-15.750967979431152,-3.116980532172332,53.34219964410131,7.391249082967924,145.8176949302239,-102.32761534653845,0.681858579638798,5.2343272107875105
1.079386,-102.83537292480469,-14.038508415222168,-3.114711023613229,46.360339293379255,11.735773612114833,158.4256094210421,-101.74026731974921,0.7028793755046984,5.409247204608965
1.082139,-102.40059661865234,-12.287152290344238,-3.112856896102656,35.39905022276228,17.526434457434675,168.64261619289738,-100.63213941869593,0.7236208502715693,5.583732947762312
1.086063,-102.07225036621094,-10.522867202758789,-3.111907775659794,29.264386046121096,23.240941254829817,173.6573547418991,-99.86890916748852,0.7420325340827536,5.744883407909132
