Time [Sec],Roll Angle [Deg],Pitch Angle [Deg],Phase Angle,Angular Velocity X [deg/s],Angular Velocity Y [deg/s],Angular Velocity Z [deg/s],EKF Roll Angle [Deg],Step Frequency [Hz],Phase Variable
0.0,-98.28050994873047,7.0165934562683105,-3.1172735188786804,8.50309203549834,-53.2880396590777,136.9694717284175,-97.30743559280245,0.4,0.025132741228718346
0.010002,-97.9657974243164,9.861623764038086,-3.117976963681602,10.592681690357962,-71.08996808913754,132.5801462809572,-96.99964928061299,0.3995079254197132,0.04717368668454186
0.018996,-97.78152465820312,9.770583152770996,-3.1191515031933337,13.28422616205456,-86.25167665024522,125.74695182770964,-92.16526476958809,0.3986995309896464,0.0671962179501297
0.029135,-97.42015075683594,11.018636703491211,-3.1205158585061934,16.421174953490507,-97.74672109883659,117.66310875629772,-96.63724581165053,0.3977129445788945,0.08604834306076577
0.04016,-97.00225830078125,12.15331745147705,-3.1221810909300824,18.397467991718894,-104.063505439507,107.89952409249375,-90.31685785991348,0.3966673006717565,0.10446740992542708
0.049991,-96.55984497070312,13.157890319824219,-3.123918602153742,20.24034523734213,-105.31140149143583,97.79137004544096,-94.559137699398,0.39564695951785483,0.12297975893311527
0.060171,-96.12507629394531,14.036267280578613,-3.1256972041845836,19.834309274205086,-99.55251383236124,87.55253398899833,-84.89402013423874,0.39471765834499095,0.14200001908656093
0.069,-95.77703094482422,14.781606674194336,-3.127581816626363,15.899713916022128,-88.91799125692143,76.89117560030954,-95.04094876273157,0.39394124777556255,0.16192252951836567
0.079896,-95.54269409179688,15.396082878112793,-3.1294710737059335,11.244273199440714,-76.55419455722861,66.35911952279825,-93.89657995769763,0.3933604013358985,0.183025022302095
0.09013,-95.38858032226562,15.893952369689941,-3.1313043532216844,6.771459361547573,-64.68676136489897,56.2312808705575,-65.20714923143227,0.3930031217212085,0.20549573121751988
0.099646,-95.32328033447266,16.288917541503906,-3.132987417023625,0.6066632717743505,-51.901948389671986,46.99970647139498,-1.5338150331721798,0.392873534162837,0.2293746229755109
0.110243,-95.39807891845703,16.590394973754883,-3.1345823281821543,-7.954469043248115,-38.53483788203933,38.3184165079983,-95.26882567099777,0.3929765003212581,0.2547065506035558
0.120134,-95.60834503173828,16.787532806396484,-3.136318363197285,-15.16568202365732,-24.91961733771136,28.892591528840622,-93.72710678720006,0.3933595663800842,0.2818048673649045
0.129134,-95.85782623291016,16.863187789916992,-3.1381632758867193,-17.50460175775273,-14.517671241246944,18.835069674105146,-91.8379758804718,0.39406734215873024,0.3109674642172501
0.139978,-96.11882019042969,16.83047866821289,-3.139834806685724,-21.755428044318112,-4.650657876615111,9.680829238046456,-95.32052132072346,0.395071773652766,0.3420384747655545
0.149754,-96.5326156616211,16.694522857666016,-3.1415845513970067,-31.903434537630623,7.514724389009769,0.04481251095869665,-95.15103379522873,0.39640778110423497,0.37525594878987095
0.160138,-97.06939697265625,16.418773651123047,3.1394737250329703,-35.50152355087998,16.40351549939144,-11.784792172240723,-95.69763388673746,0.39821481929517466,0.41151694005955364
0.170136,-97.53730773925781,15.982989311218262,3.1371859608006596,-34.66504735870144,24.152979829796205,-24.626856646864397,-37.15319859503621,0.400583769282512,0.4514220668304011
0.179157,-97.92183685302734,15.396872520446777,3.1348101440846707,-31.01972758734145,27.656414373980233,-38.0539071871058,-92.2468510972062,0.40359844557604246,0.4955332571583195
0.190144,-98.19355010986328,14.685811996459961,3.1327400886130388,-23.566941061272647,31.719760505565226,-49.80650440892002,-40.32491230341155,0.4072017485639235,0.5435323157815286
0.199069,-98.34314727783203,13.925006866455078,3.131703588462904,-14.541599101456793,36.035623853407465,-55.723210418956924,-94.82646937429297,0.4110087325884437,0.5930375423054085
0.209981,-98.37456512451172,13.202000617980957,3.131250115739027,-5.470030848225113,32.27746935695886,-58.29724916994627,-94.89335806877325,0.4148188480067804,0.6428016438177819
0.220093,-98.3039779663086,12.529582023620605,3.1309545135293853,-0.8202885371239006,18.19715903392993,-59.92055290922652,-97.52873845665337,0.41865434635425613,0.6929646275897265
0.229991,-98.23860168457031,11.90127182006836,3.1308180088797046,-3.1439725737802466,1.1182033527515798,-60.64912918799178,-35.499724172428905,0.4225625549141985,0.7438254545689489
0.239993,-98.32892608642578,11.322673797607422,3.1312525174414696,-13.413807657214395,-4.857888377354237,-58.256671016087225,-97.90268415594247,0.4263616286405835,0.794246127151475
0.249651,-98.64788055419922,10.804619789123535,3.1320602286146313,-24.958052519718315,-1.6004487523786242,-53.879919946888904,-97.44595598321172,0.4299585032817159,0.8436350482546018
0.259868,-99.08467102050781,10.352542877197266,3.1330180203026914,-33.38033317205165,-1.6925496911897207,-48.68053064877049,-93.00111686572512,0.4333549844467373,0.8919908583119426
0.269997,-99.50482940673828,10.006145477294922,3.1343162688845454,-36.70020467474429,-9.575152551208019,-41.48490586759455,-98.65810788279964,0.4363697181436847,0.9381614854923493
0.279988,-99.81007385253906,9.82016372680664,3.136104564769905,-33.405901985209596,-20.933425022990832,-31.385026594721243,-98.78991612005947,0.43863842969261807,0.9798341385782212
0.289986,-99.96852111816406,9.800724029541016,3.1379143309756357,-27.66654866716124,-32.631768344680346,-21.068696919502933,-98.64947536420273,0.44007268179901693,1.0164062757060275
0.299001,-100.01876831054688,9.89891529083252,3.139541339471826,-20.538756202179986,-40.02087872466441,-11.755386500316524,-99.07562750770622,0.44072584075313126,1.0481607765334786
0.310023,-100.01145935058594,10.072174072265625,3.1409398957974184,-15.88849362276309,-42.38469791337911,-3.7404557687618105,-71.93009486634683,0.4406981827227285,1.0756786172743709
0.320021,-100.07859802246094,10.305403709411621,-3.1409129314567736,-19.85669180411522,-41.18126297785246,3.897582563070661,-86.93579681022644,0.4399766686065024,1.0988350938462184
0.330016,-100.37145233154297,10.591841697692871,-3.1397264262655766,-31.998439053890916,-34.20808038247091,10.73242565322913,-98.9479500772727,0.4386205956486981,1.1179591855591806
0.339009,-100.91704559326172,10.888386726379395,-3.1389804535030574,-45.96471766117919,-22.568157376299805,15.104090792816729,-99.8956815162054,0.4369435842462842,1.1349815569756236
0.349019,-101.64698791503906,11.144935607910156,-3.13859839942277,-58.56010900015421,-5.623705408795345,17.4384189322426,-100.6938403973176,0.4352151153119718,1.151575241449662
0.359003,-102.4462890625,11.290043830871582,-3.139291276192208,-62.214130432516804,14.373260551625366,13.50851079137756,-100.33815272298291,0.4343259163764606,1.1733336119428046
0.369002,-103.149658203125,11.156586647033691,3.1406631505072644,-60.21099987349214,24.232285156249223,-5.493402048017604,-46.738853129636915,0.4364610800151574,1.2140387429089272
0.381017,-103.7981185913086,10.626659393310547,3.136161463752173,-64.10461068156044,26.657115009725054,-32.300657849191055,-100.18294220872724,0.44272942068415355,1.28084754735183
0.389998,-104.37718200683594,9.936020851135254,3.134636465830925,-53.44963510465103,29.30642244536794,-41.6012615552003,-103.5695125208947,0.45028122442506974,1.3561144395704465
0.399997,-104.45612335205078,9.558671951293945,3.1372743177201117,-16.208376994804173,32.41907283883157,-25.844947460802594,-102.93256989226789,0.45487502161821086,1.4132701223326176
0.408995,-104.01083374023438,9.607645034790039,3.140092129697302,10.462400954581845,26.207478534021238,-8.942201482143876,-102.81547198785171,0.4562966551678502,1.4507831498882502
0.419996,-103.44390106201172,9.906065940856934,-3.1409320708964303,26.07742148694044,-9.221084936144667,3.915207439337056,-102.37342849618902,0.4553989308061901,1.4738125457638291
0.428991,-102.94257354736328,10.568778991699219,-3.137134981474898,17.315487480013417,-57.52318383130873,26.29230436087092,-101.61144794648797,0.4508914118626453,1.4741045276753821
0.439826,-102.65916442871094,11.599902153015137,-3.134546101502129,9.1493525819339,-98.31391366789279,41.44806041211692,-90.15000058926626,0.4442968496500743,1.4741045276753821
0.449857,-102.15806579589844,12.534951210021973,-3.135173036043648,25.740022094772858,-113.2820068565981,37.57598860559625,-90.705033868255,0.4387772876060608,1.4741045276753821
0.459859,-101.57464599609375,12.930970191955566,-3.1389573738039043,16.63833911060377,-89.46356627725453,15.336832903879499,-100.58215810244684,0.43716703355436703,1.4915561931430585
0.469855,-101.64310455322266,12.596163749694824,3.138804317962715,-0.08913403536973251,-16.7462492693008,-16.23853057244249,-100.379887382636,0.4405784796195139,1.5404589557559458
0.479918,-102.28353118896484,11.531158447265625,3.1338146396224595,-18.113571178867314,92.50663411854866,-45.58330623754734,-93.49144366154752,0.4481416934911842,1.6156623923275295
0.489939,-103.22672271728516,9.981505393981934,3.129753758257785,-32.1094125524307,158.48217704774817,-70.02389167291444,-102.2548620527592,0.458672890432669,1.7099894272580656
0.49994,-104.11088562011719,8.402105331420898,3.127873603661895,-44.0076498979171,162.75094965635776,-81.84083610689936,-103.18192754420217,0.470042650078832,1.8102470016726813
0.509725,-104.70690155029297,7.23938512802124,3.129082973573595,-36.659411369926396,116.40721455285079,-75.05278237387641,-102.74268136288737,0.47963875038840603,1.9000747288712492
0.519721,-104.77886962890625,6.684426784515381,3.131720286223336,-16.964315011384507,57.7374536957612,-59.26956757943261,-82.55387378012526,0.48660258998261957,1.9739664149831115
0.530027,-104.51785278320312,6.478418827056885,3.1328308241491256,-3.5121172087229953,-2.412367533004909,-52.47096120414199,-102.17668060143487,0.4926216090685523,2.042359169705621
0.540023,-104.25969696044922,6.273748874664307,3.132489757195157,-2.1008931910491677,-40.85004661443104,-54.37893356765004,-103.43206838871933,0.49902844178097455,2.1135668154308567
0.55002,-104.12151336669922,5.934237957000732,3.1318282896231153,-0.7079976124870994,-55.47379923122474,-58.25334471396143,-102.72190179728858,0.5059868528262943,2.1886426832047556
0.560024,-104.03882598876953,5.449930667877197,3.1308748339961214,-2.324119141050817,-50.198109889888116,-63.89121508132173,-93.88140657925713,0.513500768376141,2.2676460985799824
0.569089,-104.04087829589844,4.803812026977539,3.1297861041374175,-3.8267509400566904,-37.38320310117806,-70.38333037798637,-102.58260359398426,0.5213494264794579,2.3492248766866837
0.580028,-104.06979370117188,4.032439231872559,3.1287523960046446,-4.248263258079334,-23.80278749331319,-76.56758172800184,-101.98307418947991,0.529148831621309,2.4309873350423254
0.590026,-104.14275360107422,3.197660446166992,3.1282665271174177,-8.415204576353203,-11.760702095038086,-79.52090771379116,-88.07811336019401,0.5362972445379666,2.5091495396914634
0.600021,-104.29054260253906,2.3921539783477783,3.1287531703934324,-11.301851694143922,-0.39380608254130955,-76.7253659280183,-103.37707220050483,0.54219819339487,2.579922844519196
0.610003,-104.43061828613281,1.649356484413147,3.129289739646459,-11.36160987296601,7.646398483376567,-73.61738396885238,-103.44494637216519,0.5470138882585959,2.6442480649539983
0.620091,-104.55902099609375,0.89934903383255,3.1295872410148164,-12.87615394877121,20.107212897587534,-71.92536852652181,-103.57646014573524,0.5510495929686273,2.703975041747479
0.629687,-104.71068572998047,0.09624425321817398,3.129626221744785,-13.646997999441448,30.659677580338812,-71.79579983796667,-103.65518587179862,0.554546317431137,2.7605690765742534
0.640084,-104.85022735595703,-0.7334918975830078,3.129729628538446,-13.623035134512104,38.024592015188105,-71.27017580019915,-101.05131046512453,0.557552144614258,2.8142984185054987
0.650106,-104.97252655029297,-1.5641658306121826,3.1297656784942616,-13.255874046809836,43.03003467672942,-71.13645435662865,-101.3367783110767,0.5601436328162773,2.8656132535304235
0.660098,-105.06752014160156,-2.405566930770874,3.12967134317186,-11.39360930922752,45.42166981083899,-71.7688001001776,-7.619470844348154,0.562382140118528,2.9148730721581537
0.670093,-105.12613677978516,-3.2503228187561035,3.1296019625574845,-9.61244965294452,44.716527911116046,-72.2267984349728,-103.83148837859522,0.5642616908024217,2.9620181493974234
0.680078,-105.1664810180664,-4.085992336273193,3.129413332549551,-7.742687928974468,40.947639772386765,-73.39129104694662,-104.20492750608281,0.5658007024609785,3.007141652488586
0.689911,-105.18404388427734,-4.90776252746582,3.1292209843670427,-5.051907584691265,32.65314000659332,-74.56292803679227,-100.54500012557517,0.566985841307627,3.050138406081763
0.6997000000000001,-105.16976928710938,-5.69165563583374,3.129055818548329,-1.4500391289533636,20.52835040897947,-75.54821697551246,-35.58289088878039,0.5678068421692927,3.090921677707792
0.710081,-105.12480926513672,-6.445460796356201,3.1288287444371963,2.113863720283022,10.371861674491448,-76.88385363751928,-94.79189075788918,0.5682698272484842,3.1295070548351522
0.72008,-105.0804672241211,-7.200299263000488,3.1285827487359,2.911315840082102,3.9603554166376633,-78.33272800577575,-72.48751895716607,0.5683816437031356,3.1659150646309304
0.730097,-105.07701110839844,-7.966021537780762,3.128285276571806,2.176874136367094,-0.8945487550186593,-80.12138379467284,-104.61961426152033,0.5681539659380648,3.200196994968527
0.73908,-105.10173797607422,-8.74084758758545,3.127981881918464,1.7753630668334808,-5.521828014682727,-81.96757709713812,-103.90444083335804,0.5676017918665185,3.2324257494651607
0.7500910000000001,-105.13333892822266,-9.517122268676758,3.1278011576204294,1.5893029508702212,-8.318837437353492,-83.0810550262011,-93.34457116985318,0.5667553367011372,3.262770787196696
0.75982,-105.16356658935547,-10.289515495300293,3.127755670052893,1.7761750055710661,-9.036058526623606,-83.37907667025627,-104.28933067491113,0.565657835820439,3.291485273831739
0.770065,-105.19811248779297,-11.058625221252441,3.1277937470970416,0.7783176650044069,-7.743945537555397,-83.17691673120223,-67.0947802809477,0.5643528767701798,3.318827304329859
0.780079,-105.25204467773438,-11.829270362854004,3.127814766841217,-0.282195989026541,-6.092347312751546,-83.09277563081685,-104.62302380724346,0.5628680588615209,3.3449572552962055
0.790076,-105.31229400634766,-12.610021591186523,3.127733707841271,-0.9437697128595628,-4.120391444646117,-83.62953970712063,-101.27335804744033,0.5612095215150671,3.369902400982752
0.799083,-105.35969543457031,-13.400300979614258,3.1278097269260274,-0.5507742883953691,-0.7211890556519212,-83.20819216741172,-101.81686174497504,0.5594319609290127,3.393995492624162
0.809031,-105.38020324707031,-14.184226036071777,3.128065383987481,-0.6127372842980489,5.416311410402962,-81.68048375575496,-102.09878068813673,0.5575988977999533,3.4176281640772816
0.820114,-105.36959075927734,-14.958942413330078,3.1284983119726504,0.0809277431748407,13.779517329718034,-79.05810775600943,-104.27931268443196,0.5557754901414842,3.4412063278881515
0.830136,-105.32565307617188,-15.71613597869873,3.129034015985763,-0.37406251361088855,21.71781419255885,-75.79178835150428,-104.18415141475651,0.5540068239391007,3.4650138743295056
0.840045,-105.29549407958984,-16.448219299316406,3.1295753312686934,-2.7614666123339,27.973200255232715,-72.50384456808686,-101.29475716722084,0.5523052084844422,3.489131584468839
0.849064,-105.28450775146484,-17.148910522460938,3.1301109327371286,-3.7266856805082416,30.984234509319478,-69.26489373158594,-69.95446575149967,0.550675367854994,3.5135933534831283
0.86009,-105.27760314941406,-17.80068016052246,3.130630919356924,-4.574271602258627,28.786928502380526,-66.12341652473029,-104.67288158036045,0.5491156984746051,3.538393615551532
0.870091,-105.30681610107422,-18.388120651245117,3.1311525429150175,-5.424502941651923,22.885291597199963,-62.99411754516475,-103.45489459081391,0.5476266796123,3.563539790999757
0.879052,-105.35459899902344,-18.913673400878906,3.1317316520139786,-5.048580855678646,18.241358895596374,-59.52662174884604,-98.10795236554362,0.5462292809092552,3.589168075072109
0.889058,-105.369384765625,-19.390043258666992,3.132458186540345,-3.7349762495001677,17.929588080741972,-55.14833047198988,-86.2252957849191,0.5449829013025392,3.615657438961626
0.899056,-105.32207489013672,-19.817811965942383,3.13340303404166,-1.6825804964875581,21.286178680412604,-49.42144907936597,-103.17588660732945,0.5439791591401384,3.6435930265359144
0.909169,-105.21605682373047,-20.184066772460938,3.1345984199205352,-0.7674595318539378,27.25446969415603,-42.16497755796897,-99.84989714747996,0.5433251214698861,3.6736628052570555
0.919148,-105.06396484375,-20.478731155395508,3.135968857544166,0.2871570008806446,34.94928226591694,-33.85404435703247,-98.65799387128513,0.5430926550561096,3.706340299904014
0.930031,-104.85430145263672,-20.709482192993164,3.1371781232780394,2.032233354747849,41.380902577102766,-26.521385490538563,-60.65481060294798,0.5431848162850077,3.7410428838901746
0.940026,-104.61864471435547,-20.891788482666016,3.1380496371439657,3.5616659622832065,42.13091540457811,-21.23766213919071,-104.07450343222527,0.5434098581549708,3.7765861722286767
0.950395,-104.41954040527344,-21.032066345214844,3.138538739852077,3.825330687596151,37.20421799397788,-18.271008746783398,-100.9087739122295,0.5435521972800291,3.8116239636932385
0.960042,-104.28495788574219,-21.14539337158203,3.138714246428624,3.5566235751284445,29.823945878779806,-17.198783452759994,-103.40346470986857,0.543443389811146,3.8450926979997915
0.970043,-104.2002944946289,-21.2497615814209,3.1387097500764902,2.5087417156372003,23.620962734965573,-17.21166518953464,-103.18616775485958,0.543007134178208,3.876497178238193
0.979304,-104.12838745117188,-21.360389709472656,3.138655856266897,2.4266722970044428,21.71025658824223,-17.5213271834828,-102.2044727421445,0.5422587758428061,3.905913248612313
0.989305,-104.01050567626953,-21.474279403686523,3.1388159854588458,3.676172162727766,23.551250409201838,-16.547215849339338,-43.255910478185356,0.5413899641111253,3.9345254672357575
0.998161,-103.84465026855469,-21.56424331665039,3.139151892675374,4.7479581902101735,25.301173902863077,-14.522215024592295,-103.48119219911601,0.5405585285901471,3.9633179384660555
1.010158,-103.68168640136719,-21.594112396240234,3.1398724261289743,4.5682375570137435,24.35781208036301,-10.219060951248155,-101.86805662208118,0.5400598906486659,3.9941491979236208
1.019342,-103.54825592041016,-21.496938705444336,3.1412509858796565,4.975485451841639,19.26960801664865,-2.027072933386493,-96.51057690565833,0.5403772606651257,4.030076256247187
1.03005,-103.4426040649414,-21.244569778442383,-3.1404553865158813,4.544542350122501,13.072892425171549,6.7403854159186,-87.40870807293837,0.5415937813507732,4.071672785790579
1.04013,-103.37644958496094,-20.863792419433594,-3.1387753402011715,3.372909202258261,6.643568338207316,16.687087878257444,-52.36363145551973,0.5439065383586915,4.120233607536238
1.04957,-103.30998992919922,-20.30314826965332,-3.1363256283895717,5.804185473650116,-1.2848883564736286,31.17700293826475,-101.53627421180441,0.5480093225360118,4.180186816500648
1.058779,-103.13505554199219,-19.495891571044922,-3.1333269335638807,14.824240867048383,-9.788270675011695,48.8449333020927,-100.81514797414454,0.5545218618376742,4.25553874898884
1.070118,-102.75061798095703,-18.455373764038086,-3.130070062680675,29.20673241933702,-14.0488402264281,67.83853166683384,-96.70485016108243,0.5639709039154198,4.349750467486737
1.08013,-102.12252044677734,-17.216711044311523,-3.1266566767206205,45.08649535279354,-12.654577489454118,87.39972899688681,-98.42378326597034,0.5769273887394823,4.466593799537564
